Shimmer_B640_Timestamp_Unix_CAL,Shimmer_B640_Accel_LN_X_CAL,Shimmer_B640_Accel_LN_Y_CAL,Shimmer_B640_Accel_LN_Z_CAL,Shimmer_B640_GSR_CAL,Shimmer_B640_PPGToHR_PPG_A13_CAL,Shimmer_B640_PPG_A13_CAL
ms,m/(s^2),m/(s^2),m/(s^2),kOhms,BPM,mV
1.43507E+12,6.156626506,-0.228915663,7.734939759,1257.458616,-1,1180.952381
1.43507E+12,6.13253012,-0.240963855,7.746987952,1257.458616,-1,1175.824176
1.43507E+12,6.120481928,-0.21686747,7.746987952,1258.179741,-1,1171.428571
1.43507E+12,6.144578313,-0.228915663,7.734939759,1257.458616,-1,1168.498168
1.43507E+12,6.168674699,-0.240963855,7.734939759,1258.179741,-1,1169.230769
1.43507E+12,6.168674699,-0.204819277,7.734939759,1257.458616,-1,1171.428571
1.43507E+12,6.156626506,-0.228915663,7.734939759,1258.179741,-1,1172.161172
1.43507E+12,6.156626506,-0.228915663,7.734939759,1258.179741,-1,1172.161172
1.43507E+12,6.13253012,-0.253012048,7.734939759,1258.179741,-1,1170.695971
1.43507E+12,6.144578313,-0.228915663,7.734939759,1258.179741,-1,1167.032967
1.43507E+12,6.120481928,-0.228915663,7.734939759,1258.179741,-1,1167.032967
1.43507E+12,6.144578313,-0.228915663,7.734939759,1258.179741,-1,1164.835165
1.43507E+12,6.144578313,-0.228915663,7.734939759,1258.901694,-1,1162.637363
1.43507E+12,6.156626506,-0.228915663,7.734939759,1258.179741,-1,1159.70696
1.43507E+12,6.168674699,-0.240963855,7.722891566,1257.458616,-1,1156.776557
1.43507E+12,6.180722892,-0.21686747,7.710843373,1258.179741,-1,1155.311355
1.43507E+12,6.144578313,-0.240963855,7.734939759,1258.901694,-1,1153.846154
1.43507E+12,6.13253012,-0.240963855,7.746987952,1258.901694,-1,1153.846154
1.43507E+12,6.13253012,-0.21686747,7.734939759,1258.901694,-1,1153.846154
1.43507E+12,6.144578313,-0.228915663,7.746987952,1258.179741,-1,1154.578755
1.43507E+12,6.144578313,-0.240963855,7.734939759,1258.179741,-1,1155.311355
1.43507E+12,6.168674699,-0.228915663,7.698795181,1258.179741,-1,1156.043956
1.43507E+12,6.180722892,-0.204819277,7.734939759,1258.901694,-1,1158.241758
1.43507E+12,6.156626506,-0.204819277,7.734939759,1258.179741,-1,1158.974359
1.43507E+12,6.120481928,-0.204819277,7.722891566,1258.179741,-1,1158.974359
1.43507E+12,6.144578313,-0.228915663,7.746987952,1258.901694,-1,1159.70696
1.43507E+12,6.13253012,-0.253012048,7.746987952,1258.901694,-1,1158.974359
1.43507E+12,6.156626506,-0.240963855,7.746987952,1258.901694,-1,1159.70696
1.43507E+12,6.156626506,-0.253012048,7.746987952,1258.901694,-1,1159.70696
1.43507E+12,6.156626506,-0.204819277,7.746987952,1258.179741,-1,1158.241758
1.43507E+12,6.156626506,-0.192771084,7.722891566,1258.901694,-1,1156.776557
1.43507E+12,6.156626506,-0.204819277,7.710843373,1258.179741,-1,1153.113553
1.43507E+12,6.144578313,-0.21686747,7.734939759,1258.901694,-1,1150.915751
1.43507E+12,6.144578313,-0.240963855,7.722891566,1258.901694,-1,1151.648352
1.43507E+12,6.144578313,-0.240963855,7.746987952,1258.901694,-1,1153.113553
1.43507E+12,6.144578313,-0.228915663,7.746987952,1258.901694,-1,1158.241758
1.43507E+12,6.156626506,-0.240963855,7.734939759,1258.901694,-1,1168.498168
1.43507E+12,6.180722892,-0.204819277,7.722891566,1258.901694,-1,1181.684982
1.43507E+12,6.180722892,-0.180722892,7.722891566,1258.901694,-1,1198.534799
1.43507E+12,6.192771084,-0.192771084,7.722891566,1258.901694,-1,1221.245421
1.43507E+12,6.192771084,-0.228915663,7.710843373,1259.624476,-1,1250.549451
1.43507E+12,6.156626506,-0.21686747,7.662650602,1259.624476,-1,1287.912088
1.43507E+12,6.108433735,-0.21686747,7.746987952,1259.624476,-1,1334.065934
1.43507E+12,6.120481928,-0.253012048,7.831325301,1258.901694,-1,1389.74359
1.43507E+12,6.192771084,-0.265060241,7.771084337,1258.901694,-1,1451.282051
1.43507E+12,6.144578313,-0.228915663,7.710843373,1258.901694,-1,1517.216117
1.43507E+12,6.108433735,-0.192771084,7.759036145,1259.624476,-1,1583.882784
1.43507E+12,6.108433735,-0.192771084,7.686746988,1258.901694,-1,1652.014652
1.43507E+12,6.180722892,-0.21686747,7.698795181,1259.624476,-1,1718.681319
1.43507E+12,6.204819277,-0.228915663,7.698795181,1258.901694,-1,1781.684982
1.43507E+12,6.156626506,-0.228915663,7.734939759,1259.624476,-1,1834.432234
1.43507E+12,6.120481928,-0.228915663,7.698795181,1259.624476,-1,1879.85348
1.43507E+12,6.13253012,-0.240963855,7.795180723,1259.624476,-1,1910.622711
1.43507E+12,6.192771084,-0.204819277,7.734939759,1259.624476,-1,1933.333333
1.43507E+12,6.180722892,-0.192771084,7.722891566,1259.624476,-1,1945.054945
1.43507E+12,6.156626506,-0.168674699,7.734939759,1258.901694,-1,1950.18315
1.43507E+12,6.168674699,-0.204819277,7.698795181,1259.624476,-1,1949.450549
1.43507E+12,6.156626506,-0.253012048,7.710843373,1258.901694,-1,1941.391941
1.43507E+12,6.168674699,-0.253012048,7.722891566,1258.901694,-1,1931.135531
1.43507E+12,6.120481928,-0.253012048,7.722891566,1258.901694,-1,1917.216117
1.43507E+12,6.084337349,-0.253012048,7.734939759,1259.624476,-1,1898.901099
1.43507E+12,6.13253012,-0.228915663,7.734939759,1259.624476,-1,1878.388278
1.43507E+12,6.192771084,-0.21686747,7.734939759,1259.624476,-1,1856.410256
1.43507E+12,6.21686747,-0.21686747,7.759036145,1258.901694,-1,1830.769231
1.43507E+12,6.180722892,-0.21686747,7.722891566,1259.624476,-1,1801.465201
1.43507E+12,6.13253012,-0.21686747,7.746987952,1259.624476,-1,1771.428571
1.43507E+12,6.096385542,-0.21686747,7.734939759,1259.624476,-1,1742.124542
1.43507E+12,6.096385542,-0.228915663,7.734939759,1259.624476,-1,1714.285714
1.43507E+12,6.120481928,-0.253012048,7.734939759,1259.624476,-1,1687.912088
1.43507E+12,6.156626506,-0.21686747,7.759036145,1259.624476,-1,1665.934066
1.43507E+12,6.204819277,-0.21686747,7.722891566,1258.901694,-1,1649.084249
1.43507E+12,6.204819277,-0.204819277,7.698795181,1259.624476,-1,1632.967033
1.43507E+12,6.192771084,-0.204819277,7.722891566,1259.624476,-1,1620.512821
1.43507E+12,6.21686747,-0.192771084,7.710843373,1259.624476,-1,1611.721612
1.43507E+12,6.192771084,-0.192771084,7.722891566,1259.624476,-1,1606.593407
1.43507E+12,6.168674699,-0.21686747,7.722891566,1259.624476,-1,1602.930403
1.43507E+12,6.120481928,-0.240963855,7.710843373,1260.348088,-1,1599.267399
1.43507E+12,6.108433735,-0.253012048,7.734939759,1260.348088,-1,1594.139194
1.43507E+12,6.13253012,-0.240963855,7.759036145,1260.348088,-1,1591.941392
1.43507E+12,6.144578313,-0.253012048,7.746987952,1259.624476,-1,1587.545788
1.43507E+12,6.13253012,-0.240963855,7.746987952,1259.624476,-1,1583.882784
1.43507E+12,6.120481928,-0.228915663,7.722891566,1259.624476,-1,1575.824176
1.43507E+12,6.156626506,-0.21686747,7.722891566,1260.348088,-1,1563.369963
1.43507E+12,6.180722892,-0.228915663,7.722891566,1260.348088,-1,1550.18315
1.43507E+12,6.168674699,-0.228915663,7.734939759,1260.348088,-1,1535.531136
1.43507E+12,6.144578313,-0.180722892,7.734939759,1259.624476,-1,1520.14652
1.43507E+12,6.156626506,-0.228915663,7.746987952,1260.348088,-1,1503.296703
1.43507E+12,6.156626506,-0.204819277,7.746987952,1259.624476,-1,1484.981685
1.43507E+12,6.156626506,-0.204819277,7.734939759,1259.624476,-1,1464.468864
1.43507E+12,6.180722892,-0.21686747,7.722891566,1260.348088,-1,1444.688645
1.43507E+12,6.192771084,-0.228915663,7.722891566,1259.624476,-1,1421.978022
1.43507E+12,6.168674699,-0.21686747,7.710843373,1259.624476,-1,1400
1.43507E+12,6.156626506,-0.228915663,7.746987952,1260.348088,-1,1381.684982
1.43507E+12,6.156626506,-0.21686747,7.722891566,1259.624476,-1,1364.102564
1.43507E+12,6.144578313,-0.21686747,7.734939759,1259.624476,-1,1345.787546
1.43507E+12,6.144578313,-0.228915663,7.734939759,1259.624476,-1,1327.472527
1.43507E+12,6.13253012,-0.240963855,7.746987952,1259.624476,-1,1310.622711
1.43507E+12,6.13253012,-0.228915663,7.734939759,1260.348088,-1,1295.238095
1.43507E+12,6.156626506,-0.228915663,7.722891566,1260.348088,-1,1283.516484
1.43507E+12,6.156626506,-0.21686747,7.710843373,1259.624476,-1,1274.725275
1.43507E+12,6.144578313,-0.21686747,7.734939759,1260.348088,-1,1267.399267
1.43507E+12,6.180722892,-0.204819277,7.710843373,1260.348088,-1,1261.538462
1.43507E+12,6.168674699,-0.228915663,7.746987952,1260.348088,-1,1256.410256
1.43507E+12,6.180722892,-0.240963855,7.746987952,1259.624476,-1,1251.282051
1.43507E+12,6.156626506,-0.228915663,7.722891566,1260.348088,-1,1246.153846
1.43507E+12,6.156626506,-0.21686747,7.746987952,1260.348088,-1,1241.758242
1.43507E+12,6.156626506,-0.204819277,7.722891566,1261.072532,-1,1238.827839
1.43507E+12,6.156626506,-0.21686747,7.722891566,1260.348088,-1,1235.897436
1.43507E+12,6.180722892,-0.21686747,7.710843373,1260.348088,-1,1235.164835
1.43507E+12,6.168674699,-0.228915663,7.710843373,1260.348088,-1,1238.095238
1.43507E+12,6.156626506,-0.253012048,7.734939759,1260.348088,-1,1241.758242
1.43507E+12,6.156626506,-0.228915663,7.734939759,1260.348088,-1,1245.421245
1.43507E+12,6.144578313,-0.240963855,7.746987952,1261.072532,-1,1250.549451
1.43507E+12,6.13253012,-0.228915663,7.746987952,1260.348088,-1,1253.479853
1.43507E+12,6.156626506,-0.21686747,7.734939759,1260.348088,-1,1252.747253
1.43507E+12,6.168674699,-0.204819277,7.734939759,1260.348088,-1,1250.549451
1.43507E+12,6.144578313,-0.228915663,7.734939759,1261.072532,-1,1246.153846
1.43507E+12,6.156626506,-0.240963855,7.734939759,1261.072532,-1,1241.758242
1.43507E+12,6.156626506,-0.228915663,7.710843373,1261.072532,-1,1238.095238
1.43507E+12,6.168674699,-0.21686747,7.710843373,1260.348088,-1,1233.699634
1.43507E+12,6.168674699,-0.240963855,7.734939759,1261.072532,-1,1232.234432
1.43507E+12,6.168674699,-0.21686747,7.734939759,1261.072532,-1,1227.838828
1.43507E+12,6.180722892,-0.204819277,7.734939759,1260.348088,-1,1225.641026
1.43507E+12,6.13253012,-0.21686747,7.734939759,1261.072532,-1,1224.175824
1.43507E+12,6.120481928,-0.21686747,7.734939759,1261.072532,-1,1221.245421
1.43507E+12,6.156626506,-0.21686747,7.722891566,1261.072532,-1,1216.117216
1.43507E+12,6.192771084,-0.21686747,7.734939759,1261.072532,-1,1210.989011
1.43507E+12,6.168674699,-0.21686747,7.710843373,1261.072532,-1,1204.395604
1.43507E+12,6.144578313,-0.228915663,7.698795181,1261.072532,-1,1194.871795
1.43507E+12,6.13253012,-0.228915663,7.759036145,1261.072532,-1,1186.813187
1.43507E+12,6.168674699,-0.228915663,7.710843373,1261.79781,-1,1178.021978
1.43507E+12,6.156626506,-0.228915663,7.722891566,1261.072532,-1,1172.161172
1.43507E+12,6.13253012,-0.228915663,7.746987952,1261.072532,-1,1164.102564
1.43507E+12,6.13253012,-0.21686747,7.722891566,1261.79781,-1,1156.776557
1.43507E+12,6.13253012,-0.228915663,7.746987952,1260.348088,-1,1150.915751
1.43507E+12,6.168674699,-0.21686747,7.746987952,1261.072532,-1,1144.322344
1.43507E+12,6.144578313,-0.204819277,7.734939759,1261.072532,-1,1141.391941
1.43507E+12,6.144578313,-0.21686747,7.734939759,1261.79781,-1,1142.124542
1.43507E+12,6.168674699,-0.228915663,7.734939759,1261.072532,-1,1145.054945
1.43507E+12,6.168674699,-0.240963855,7.722891566,1260.348088,-1,1147.252747
1.43507E+12,6.180722892,-0.240963855,7.722891566,1261.072532,-1,1149.450549
1.43507E+12,6.168674699,-0.228915663,7.710843373,1261.79781,-1,1150.915751
1.43507E+12,6.144578313,-0.228915663,7.722891566,1261.072532,-1,1150.915751
1.43507E+12,6.144578313,-0.240963855,7.722891566,1261.072532,-1,1153.846154
1.43507E+12,6.168674699,-0.228915663,7.746987952,1261.072532,-1,1154.578755
1.43507E+12,6.168674699,-0.228915663,7.734939759,1261.072532,-1,1157.509158
1.43507E+12,6.168674699,-0.21686747,7.722891566,1261.79781,-1,1163.369963
1.43507E+12,6.168674699,-0.228915663,7.710843373,1261.072532,-1,1172.161172
1.43507E+12,6.156626506,-0.228915663,7.698795181,1261.79781,-1,1180.952381
1.43507E+12,6.168674699,-0.228915663,7.734939759,1261.072532,-1,1189.74359
1.43507E+12,6.168674699,-0.253012048,7.722891566,1261.072532,-1,1194.871795
1.43507E+12,6.144578313,-0.21686747,7.734939759,1261.072532,-1,1197.069597
1.43507E+12,6.13253012,-0.228915663,7.734939759,1261.072532,-1,1197.802198
1.43507E+12,6.156626506,-0.240963855,7.746987952,1261.79781,-1,1197.802198
1.43507E+12,6.168674699,-0.228915663,7.734939759,1261.072532,-1,1196.336996
1.43507E+12,6.21686747,-0.204819277,7.722891566,1261.072532,-1,1190.47619
1.43507E+12,6.180722892,-0.204819277,7.722891566,1261.79781,-1,1184.615385
1.43507E+12,6.13253012,-0.204819277,7.722891566,1261.79781,-1,1180.21978
1.43507E+12,6.156626506,-0.228915663,7.722891566,1261.79781,-1,1175.091575
1.43507E+12,6.13253012,-0.240963855,7.734939759,1261.072532,-1,1169.230769
1.43507E+12,6.120481928,-0.253012048,7.746987952,1261.79781,-1,1164.102564
1.43507E+12,6.13253012,-0.253012048,7.746987952,1261.79781,-1,1158.241758
1.43507E+12,6.168674699,-0.21686747,7.734939759,1261.79781,-1,1152.380952
1.43507E+12,6.180722892,-0.204819277,7.734939759,1261.79781,-1,1146.520147
1.43507E+12,6.156626506,-0.204819277,7.722891566,1261.072532,-1,1142.124542
1.43507E+12,6.168674699,-0.21686747,7.746987952,1261.79781,-1,1141.391941
1.43507E+12,6.180722892,-0.228915663,7.722891566,1262.523922,-1,1141.391941
1.43507E+12,6.13253012,-0.228915663,7.746987952,1261.79781,-1,1142.124542
1.43507E+12,6.120481928,-0.228915663,7.734939759,1262.523922,-1,1143.589744
1.43507E+12,6.156626506,-0.21686747,7.722891566,1261.79781,-1,1146.520147
1.43507E+12,6.204819277,-0.192771084,7.722891566,1261.79781,-1,1150.915751
1.43507E+12,6.180722892,-0.204819277,7.710843373,1261.79781,-1,1158.974359
1.43507E+12,6.180722892,-0.204819277,7.710843373,1261.79781,-1,1169.230769
1.43507E+12,6.180722892,-0.21686747,7.722891566,1261.79781,-1,1185.347985
1.43507E+12,6.156626506,-0.21686747,7.722891566,1261.79781,-1,1209.52381
1.43507E+12,6.156626506,-0.21686747,7.734939759,1261.79781,-1,1241.025641
1.43507E+12,6.13253012,-0.228915663,7.710843373,1262.523922,-1,1280.586081
1.43507E+12,6.120481928,-0.228915663,7.722891566,1262.523922,-1,1326.739927
1.43507E+12,6.13253012,-0.228915663,7.710843373,1262.523922,-1,1378.754579
1.43507E+12,6.156626506,-0.228915663,7.746987952,1262.523922,-1,1435.897436
1.43507E+12,6.168674699,-0.253012048,7.722891566,1262.523922,-1,1493.772894
1.43507E+12,6.192771084,-0.253012048,7.722891566,1262.523922,-1,1549.450549
1.43507E+12,6.204819277,-0.240963855,7.710843373,1261.79781,-1,1603.663004
1.43507E+12,6.192771084,-0.21686747,7.722891566,1261.79781,-1,1651.282051
1.43507E+12,6.180722892,-0.21686747,7.722891566,1262.523922,-1,1692.307692
1.43507E+12,6.156626506,-0.21686747,7.722891566,1262.523922,-1,1726.739927
1.43507E+12,6.168674699,-0.204819277,7.734939759,1262.523922,-1,1751.648352
1.43507E+12,6.168674699,-0.204819277,7.722891566,1261.79781,-1,1767.032967
1.43507E+12,6.156626506,-0.21686747,7.734939759,1261.79781,-1,1775.091575
1.43507E+12,6.168674699,-0.21686747,7.722891566,1261.79781,-1,1775.091575
1.43507E+12,6.156626506,-0.192771084,7.722891566,1261.79781,-1,1771.428571
1.43507E+12,6.168674699,-0.228915663,7.734939759,1261.79781,-1,1764.835165
1.43507E+12,6.168674699,-0.228915663,7.710843373,1261.79781,-1,1759.70696
1.43507E+12,6.156626506,-0.240963855,7.722891566,1261.79781,-1,1752.380952
1.43507E+12,6.180722892,-0.228915663,7.722891566,1262.523922,-1,1741.391941
1.43507E+12,6.180722892,-0.21686747,7.722891566,1261.79781,-1,1726.007326
1.43507E+12,6.168674699,-0.21686747,7.722891566,1262.523922,-1,1705.494505
1.43507E+12,6.144578313,-0.21686747,7.722891566,1261.79781,-1,1680.586081
1.43507E+12,6.120481928,-0.228915663,7.710843373,1261.79781,-1,1651.282051
1.43507E+12,6.13253012,-0.228915663,7.746987952,1262.523922,-1,1622.710623
1.43507E+12,6.144578313,-0.253012048,7.746987952,1262.523922,-1,1593.406593
1.43507E+12,6.168674699,-0.253012048,7.722891566,1262.523922,-1,1564.835165
1.43507E+12,6.180722892,-0.204819277,7.710843373,1261.79781,-1,1542.857143
1.43507E+12,6.156626506,-0.204819277,7.734939759,1261.79781,-1,1522.344322
1.43507E+12,6.180722892,-0.204819277,7.722891566,1263.25087,-1,1505.494505
1.43507E+12,6.228915663,-0.192771084,7.698795181,1262.523922,-1,1499.6337
1.43507E+12,6.21686747,-0.204819277,7.710843373,1261.79781,-1,1498.901099
1.43507E+12,6.180722892,-0.204819277,7.710843373,1262.523922,-1,1503.296703
1.43507E+12,6.144578313,-0.21686747,7.734939759,1263.25087,-1,1510.622711
1.43507E+12,6.13253012,-0.228915663,7.734939759,1263.25087,-1,1517.948718
1.43507E+12,6.144578313,-0.21686747,7.759036145,1262.523922,-1,1522.344322
1.43507E+12,6.156626506,-0.21686747,7.734939759,1262.523922,-1,1526.007326
1.43507E+12,6.120481928,-0.228915663,7.710843373,1263.25087,-1,1528.937729
1.43507E+12,6.13253012,-0.228915663,7.698795181,1263.25087,-1,1531.135531
1.43507E+12,6.168674699,-0.228915663,7.710843373,1263.25087,-1,1529.67033
1.43507E+12,6.168674699,-0.228915663,7.734939759,1262.523922,-1,1522.344322
1.43507E+12,6.156626506,-0.240963855,7.722891566,1262.523922,-1,1509.89011
1.43507E+12,6.144578313,-0.204819277,7.722891566,1263.25087,-1,1495.970696
1.43507E+12,6.168674699,-0.21686747,7.722891566,1262.523922,-1,1480.586081
1.43507E+12,6.204819277,-0.21686747,7.722891566,1262.523922,-1,1466.666667
1.43507E+12,6.204819277,-0.240963855,7.734939759,1263.25087,-1,1454.945055
1.43507E+12,6.192771084,-0.240963855,7.698795181,1262.523922,-1,1442.490842
1.43507E+12,6.180722892,-0.204819277,7.698795181,1263.25087,-1,1427.106227
1.43507E+12,6.168674699,-0.228915663,7.698795181,1262.523922,-1,1410.989011
1.43507E+12,6.168674699,-0.228915663,7.722891566,1263.25087,-1,1389.74359
1.43507E+12,6.156626506,-0.21686747,7.722891566,1262.523922,-1,1369.230769
1.43507E+12,6.168674699,-0.21686747,7.722891566,1263.25087,-1,1349.450549
1.43507E+12,6.168674699,-0.228915663,7.722891566,1262.523922,-1,1329.67033
1.43507E+12,6.156626506,-0.228915663,7.710843373,1263.25087,-1,1310.622711
1.43507E+12,6.168674699,-0.228915663,7.722891566,1263.25087,-1,1295.970696
1.43507E+12,6.156626506,-0.21686747,7.710843373,1263.25087,-1,1280.586081
1.43507E+12,6.168674699,-0.21686747,7.722891566,1262.523922,-1,1268.131868
1.43507E+12,6.180722892,-0.228915663,7.734939759,1263.25087,-1,1258.608059
1.43507E+12,6.156626506,-0.21686747,7.734939759,1263.25087,-1,1248.351648
1.43507E+12,6.156626506,-0.21686747,7.722891566,1262.523922,-1,1240.29304
1.43507E+12,6.192771084,-0.21686747,7.710843373,1263.25087,-1,1235.164835
1.43507E+12,6.192771084,-0.240963855,7.710843373,1263.25087,-1,1230.769231
1.43507E+12,6.180722892,-0.240963855,7.698795181,1263.25087,-1,1224.908425
1.43507E+12,6.180722892,-0.228915663,7.722891566,1263.25087,-1,1219.78022
1.43507E+12,6.168674699,-0.21686747,7.710843373,1262.523922,-1,1213.186813
1.43507E+12,6.168674699,-0.228915663,7.698795181,1263.25087,-1,1207.326007
1.43507E+12,6.180722892,-0.21686747,7.722891566,1263.25087,-1,1204.395604
1.43507E+12,6.180722892,-0.21686747,7.710843373,1263.25087,-1,1201.465201
1.43507E+12,6.168674699,-0.21686747,7.710843373,1263.25087,-1,1199.267399
1.43507E+12,6.180722892,-0.204819277,7.710843373,1263.25087,-1,1198.534799
1.43507E+12,6.168674699,-0.21686747,7.722891566,1263.25087,-1,1197.069597
1.43507E+12,6.180722892,-0.21686747,7.710843373,1263.25087,-1,1195.604396
1.43507E+12,6.180722892,-0.21686747,7.722891566,1263.25087,-1,1194.139194
1.43507E+12,6.168674699,-0.204819277,7.710843373,1263.25087,-1,1193.406593
1.43507E+12,6.180722892,-0.204819277,7.710843373,1263.25087,-1,1196.336996
1.43507E+12,6.168674699,-0.21686747,7.710843373,1263.978656,-1,1197.069597
1.43507E+12,6.180722892,-0.21686747,7.710843373,1263.978656,-1,1199.267399
1.43507E+12,6.168674699,-0.253012048,7.710843373,1263.978656,-1,1201.465201
1.43507E+12,6.180722892,-0.21686747,7.734939759,1263.25087,-1,1202.197802
1.43507E+12,6.156626506,-0.21686747,7.746987952,1263.25087,-1,1201.465201
1.43507E+12,6.168674699,-0.204819277,7.722891566,1263.25087,-1,1200.732601
1.43507E+12,6.180722892,-0.204819277,7.722891566,1263.978656,-1,1200
1.43507E+12,6.180722892,-0.192771084,7.686746988,1263.25087,-1,1195.604396
1.43507E+12,6.192771084,-0.21686747,7.710843373,1263.978656,-1,1194.139194
1.43507E+12,6.180722892,-0.240963855,7.734939759,1263.25087,-1,1191.941392
1.43507E+12,6.204819277,-0.240963855,7.698795181,1263.978656,-1,1189.74359
1.43507E+12,6.168674699,-0.204819277,7.710843373,1263.978656,-1,1188.278388
1.43507E+12,6.120481928,-0.204819277,7.734939759,1263.978656,-1,1186.080586
1.43507E+12,6.13253012,-0.228915663,7.734939759,1263.978656,-1,1183.882784
1.43507E+12,6.192771084,-0.21686747,7.722891566,1263.978656,-1,1181.684982
1.43507E+12,6.192771084,-0.228915663,7.722891566,1263.978656,-1,1179.487179
1.43507E+12,6.156626506,-0.204819277,7.710843373,1263.978656,-1,1178.021978
1.43507E+12,6.13253012,-0.228915663,7.710843373,1263.25087,-1,1178.754579
1.43507E+12,6.180722892,-0.228915663,7.734939759,1263.978656,-1,1179.487179
1.43507E+12,6.180722892,-0.228915663,7.710843373,1263.978656,-1,1180.952381
1.43507E+12,6.168674699,-0.21686747,7.722891566,1263.978656,-1,1181.684982
1.43507E+12,6.120481928,-0.204819277,7.734939759,1263.978656,-1,1183.150183
1.43507E+12,6.144578313,-0.21686747,7.710843373,1263.978656,-1,1188.278388
1.43507E+12,6.168674699,-0.228915663,7.734939759,1263.978656,-1,1192.673993
1.43507E+12,6.192771084,-0.21686747,7.722891566,1263.978656,-1,1195.604396
1.43507E+12,6.156626506,-0.21686747,7.710843373,1263.978656,-1,1200
1.43507E+12,6.13253012,-0.21686747,7.722891566,1263.978656,-1,1202.197802
1.43507E+12,6.180722892,-0.21686747,7.710843373,1263.25087,-1,1203.663004
1.43507E+12,6.192771084,-0.228915663,7.710843373,1264.707281,-1,1205.860806
1.43507E+12,6.180722892,-0.240963855,7.722891566,1263.978656,-1,1205.860806
1.43507E+12,6.156626506,-0.228915663,7.746987952,1263.978656,-1,1204.395604
1.43507E+12,6.108433735,-0.204819277,7.710843373,1263.978656,-1,1201.465201
1.43507E+12,6.168674699,-0.180722892,7.710843373,1263.978656,-1,1197.802198
1.43507E+12,6.204819277,-0.204819277,7.710843373,1263.978656,-1,1194.139194
1.43507E+12,6.204819277,-0.228915663,7.710843373,1264.707281,-1,1191.208791
1.43507E+12,6.192771084,-0.228915663,7.722891566,1263.978656,-1,1187.545788
1.43507E+12,6.156626506,-0.21686747,7.722891566,1264.707281,-1,1184.615385
1.43507E+12,6.144578313,-0.21686747,7.734939759,1263.978656,-1,1180.21978
1.43507E+12,6.13253012,-0.240963855,7.734939759,1263.978656,-1,1178.754579
1.43507E+12,6.168674699,-0.21686747,7.746987952,1263.978656,-1,1179.487179
1.43507E+12,6.180722892,-0.240963855,7.734939759,1263.25087,-1,1179.487179
1.43507E+12,6.180722892,-0.204819277,7.722891566,1264.707281,-1,1178.021978
1.43507E+12,6.180722892,-0.204819277,7.722891566,1265.436747,-1,1180.21978
1.43507E+12,6.204819277,-0.204819277,7.734939759,1264.707281,-1,1180.21978
1.43507E+12,6.180722892,-0.204819277,7.710843373,1264.707281,-1,1181.684982
1.43507E+12,6.156626506,-0.228915663,7.722891566,1263.978656,-1,1183.150183
1.43507E+12,6.13253012,-0.21686747,7.710843373,1264.707281,-1,1184.615385
1.43507E+12,6.168674699,-0.228915663,7.722891566,1264.707281,-1,1185.347985
1.43507E+12,6.192771084,-0.240963855,7.722891566,1264.707281,-1,1187.545788
1.43507E+12,6.192771084,-0.21686747,7.722891566,1263.978656,-1,1189.010989
1.43507E+12,6.180722892,-0.228915663,7.722891566,1264.707281,-1,1191.941392
1.43507E+12,6.180722892,-0.204819277,7.746987952,1263.978656,-1,1200
1.43507E+12,6.156626506,-0.21686747,7.734939759,1264.707281,-1,1211.721612
1.43507E+12,6.180722892,-0.192771084,7.722891566,1264.707281,-1,1229.304029
1.43507E+12,6.180722892,-0.21686747,7.734939759,1264.707281,-1,1256.410256
1.43507E+12,6.144578313,-0.240963855,7.722891566,1264.707281,-1,1288.644689
1.43507E+12,6.144578313,-0.228915663,7.722891566,1264.707281,-1,1324.542125
1.43507E+12,6.144578313,-0.228915663,7.734939759,1264.707281,-1,1363.369963
1.43507E+12,6.144578313,-0.240963855,7.722891566,1264.707281,-1,1405.128205
1.43507E+12,6.168674699,-0.228915663,7.722891566,1265.436747,-1,1446.886447
1.43507E+12,6.180722892,-0.21686747,7.710843373,1264.707281,-1,1487.912088
1.43507E+12,6.168674699,-0.228915663,7.734939759,1264.707281,-1,1523.809524
1.43507E+12,6.168674699,-0.228915663,7.722891566,1265.436747,-1,1557.509158
1.43507E+12,6.204819277,-0.204819277,7.734939759,1264.707281,-1,1585.347985
1.43507E+12,6.180722892,-0.192771084,7.746987952,1265.436747,-1,1608.791209
1.43507E+12,6.156626506,-0.192771084,7.722891566,1264.707281,-1,1629.304029
1.43507E+12,6.168674699,-0.228915663,7.734939759,1264.707281,-1,1646.153846
1.43507E+12,6.156626506,-0.204819277,7.722891566,1265.436747,-1,1659.340659
1.43507E+12,6.144578313,-0.21686747,7.710843373,1263.978656,-1,1668.864469
1.43507E+12,6.144578313,-0.21686747,7.722891566,1264.707281,-1,1672.527473
1.43507E+12,6.144578313,-0.253012048,7.710843373,1265.436747,-1,1668.864469
1.43507E+12,6.144578313,-0.21686747,7.746987952,1264.707281,-1,1659.340659
1.43507E+12,6.180722892,-0.21686747,7.746987952,1265.436747,-1,1643.956044
1.43507E+12,6.21686747,-0.21686747,7.722891566,1264.707281,-1,1624.175824
1.43507E+12,6.168674699,-0.204819277,7.734939759,1264.707281,-1,1604.395604
1.43507E+12,6.13253012,-0.21686747,7.746987952,1265.436747,-1,1581.684982
1.43507E+12,6.108433735,-0.21686747,7.734939759,1265.436747,-1,1559.70696
1.43507E+12,6.13253012,-0.228915663,7.746987952,1264.707281,-1,1534.065934
1.43507E+12,6.120481928,-0.240963855,7.746987952,1265.436747,-1,1510.622711
1.43507E+12,6.144578313,-0.253012048,7.722891566,1264.707281,-1,1490.10989
1.43507E+12,6.156626506,-0.240963855,7.710843373,1265.436747,-1,1471.062271
1.43507E+12,6.204819277,-0.228915663,7.734939759,1264.707281,-1,1456.410256
1.43507E+12,6.21686747,-0.204819277,7.710843373,1265.436747,-1,1447.619048
1.43507E+12,6.204819277,-0.192771084,7.710843373,1264.707281,-1,1444.688645
1.43507E+12,6.180722892,-0.180722892,7.722891566,1265.436747,-1,1446.153846
1.43507E+12,6.180722892,-0.192771084,7.722891566,1265.436747,-1,1451.282051
1.43507E+12,6.180722892,-0.228915663,7.734939759,1265.436747,-1,1456.410256
1.43507E+12,6.156626506,-0.192771084,7.734939759,1265.436747,-1,1462.271062
1.43507E+12,6.120481928,-0.204819277,7.722891566,1266.167054,-1,1469.59707
1.43507E+12,6.120481928,-0.21686747,7.722891566,1264.707281,-1,1474.725275
1.43507E+12,6.120481928,-0.228915663,7.734939759,1265.436747,-1,1479.120879
1.43507E+12,6.168674699,-0.21686747,7.722891566,1265.436747,-1,1479.85348
1.43507E+12,6.180722892,-0.228915663,7.722891566,1264.707281,-1,1479.120879
1.43507E+12,6.168674699,-0.204819277,7.722891566,1265.436747,-1,1474.725275
1.43507E+12,6.156626506,-0.21686747,7.698795181,1265.436747,-1,1467.399267
1.43507E+12,6.156626506,-0.21686747,7.722891566,1265.436747,-1,1456.410256
1.43507E+12,6.168674699,-0.21686747,7.710843373,1265.436747,-1,1446.886447
1.43507E+12,6.180722892,-0.228915663,7.734939759,1265.436747,-1,1435.164835
1.43507E+12,6.180722892,-0.228915663,7.722891566,1266.167054,-1,1423.443223
1.43507E+12,6.156626506,-0.240963855,7.722891566,1265.436747,-1,1411.721612
1.43507E+12,6.168674699,-0.21686747,7.722891566,1265.436747,-1,1397.069597
1.43507E+12,6.180722892,-0.204819277,7.734939759,1264.707281,-1,1381.684982
1.43507E+12,6.168674699,-0.21686747,7.722891566,1265.436747,-1,1367.765568
1.43507E+12,6.180722892,-0.204819277,7.722891566,1266.167054,-1,1353.846154
1.43507E+12,6.180722892,-0.204819277,7.722891566,1265.436747,-1,1337.728938
1.43507E+12,6.156626506,-0.192771084,7.722891566,1265.436747,-1,1322.344322
1.43507E+12,6.156626506,-0.228915663,7.710843373,1265.436747,-1,1306.959707
1.43507E+12,6.180722892,-0.204819277,7.734939759,1265.436747,-1,1292.307692
1.43507E+12,6.180722892,-0.21686747,7.722891566,1265.436747,-1,1278.388278
1.43507E+12,6.156626506,-0.228915663,7.722891566,1265.436747,-1,1265.934066
1.43507E+12,6.156626506,-0.228915663,7.722891566,1266.167054,-1,1254.945055
1.43507E+12,6.156626506,-0.21686747,7.734939759,1265.436747,-1,1246.153846
1.43507E+12,6.168674699,-0.21686747,7.734939759,1266.167054,-1,1240.29304
1.43507E+12,6.168674699,-0.228915663,7.734939759,1266.167054,-1,1235.897436
1.43507E+12,6.168674699,-0.228915663,7.734939759,1266.167054,-1,1231.501832
1.43507E+12,6.156626506,-0.21686747,7.722891566,1266.167054,-1,1226.373626
1.43507E+12,6.144578313,-0.21686747,7.722891566,1265.436747,-1,1224.175824
1.43507E+12,6.156626506,-0.21686747,7.722891566,1265.436747,-1,1218.315018
1.43507E+12,6.180722892,-0.228915663,7.722891566,1266.167054,-1,1213.919414
1.43507E+12,6.156626506,-0.204819277,7.722891566,1265.436747,-1,1209.52381
1.43507E+12,6.156626506,-0.21686747,7.722891566,1266.167054,-1,1204.395604
1.43507E+12,6.168674699,-0.21686747,7.734939759,1265.436747,-1,1197.802198
1.43507E+12,6.156626506,-0.21686747,7.734939759,1266.167054,-1,1190.47619
1.43507E+12,6.156626506,-0.204819277,7.746987952,1266.167054,-1,1180.952381
1.43507E+12,6.144578313,-0.21686747,7.734939759,1265.436747,-1,1172.893773
1.43507E+12,6.144578313,-0.228915663,7.722891566,1265.436747,-1,1167.765568
1.43507E+12,6.144578313,-0.21686747,7.746987952,1266.167054,-1,1166.300366
1.43507E+12,6.156626506,-0.228915663,7.734939759,1266.167054,-1,1166.300366
1.43507E+12,6.180722892,-0.21686747,7.734939759,1266.167054,-1,1165.567766
1.43507E+12,6.156626506,-0.228915663,7.722891566,1266.167054,-1,1165.567766
1.43507E+12,6.144578313,-0.21686747,7.734939759,1266.167054,-1,1165.567766
1.43507E+12,6.144578313,-0.204819277,7.734939759,1265.436747,-1,1165.567766
1.43507E+12,6.168674699,-0.21686747,7.734939759,1266.167054,-1,1167.765568
1.43507E+12,6.168674699,-0.228915663,7.746987952,1266.167054,-1,1166.300366
1.43507E+12,6.168674699,-0.240963855,7.710843373,1266.167054,-1,1164.102564
1.43507E+12,6.144578313,-0.192771084,7.734939759,1266.167054,-1,1162.637363
1.43507E+12,6.108433735,-0.204819277,7.722891566,1265.436747,-1,1160.43956
1.43507E+12,6.156626506,-0.204819277,7.734939759,1266.167054,-1,1158.974359
1.43507E+12,6.180722892,-0.228915663,7.722891566,1266.167054,-1,1159.70696
1.43507E+12,6.168674699,-0.204819277,7.722891566,1266.167054,-1,1161.172161
1.43507E+12,6.156626506,-0.228915663,7.734939759,1265.436747,-1,1163.369963
1.43507E+12,6.13253012,-0.228915663,7.746987952,1266.167054,-1,1165.567766
1.43507E+12,6.156626506,-0.21686747,7.734939759,1266.167054,-1,1168.498168
1.43507E+12,6.144578313,-0.21686747,7.722891566,1266.167054,-1,1169.96337
1.43507E+12,6.156626506,-0.204819277,7.734939759,1266.167054,-1,1170.695971
1.43507E+12,6.144578313,-0.21686747,7.722891566,1265.436747,-1,1171.428571
1.43507E+12,6.168674699,-0.21686747,7.698795181,1266.167054,-1,1172.893773
1.43507E+12,6.156626506,-0.204819277,7.734939759,1266.167054,-1,1174.358974
1.43507E+12,6.156626506,-0.21686747,7.722891566,1265.436747,-1,1179.487179
1.43507E+12,6.144578313,-0.21686747,7.734939759,1266.167054,-1,1181.684982
1.43507E+12,6.13253012,-0.240963855,7.734939759,1266.167054,-1,1184.615385
1.43507E+12,6.13253012,-0.204819277,7.734939759,1266.167054,-1,1188.278388
1.43507E+12,6.168674699,-0.21686747,7.746987952,1266.167054,-1,1191.208791
1.43507E+12,6.192771084,-0.204819277,7.722891566,1265.436747,-1,1196.336996
1.43507E+12,6.168674699,-0.228915663,7.698795181,1266.167054,-1,1203.663004
1.43507E+12,6.156626506,-0.228915663,7.734939759,1266.167054,-1,1210.989011
1.43507E+12,6.144578313,-0.192771084,7.746987952,1266.167054,-1,1218.315018
1.43507E+12,6.156626506,-0.204819277,7.734939759,1266.167054,-1,1221.978022
1.43507E+12,6.168674699,-0.21686747,7.710843373,1266.167054,-1,1227.106227
1.43507E+12,6.168674699,-0.21686747,7.734939759,1266.167054,-1,1227.838828
1.43507E+12,6.192771084,-0.204819277,7.734939759,1266.167054,-1,1226.373626
1.43507E+12,6.192771084,-0.180722892,7.734939759,1266.167054,-1,1222.710623
1.43507E+12,6.156626506,-0.192771084,7.722891566,1266.898205,-1,1219.78022
1.43507E+12,6.120481928,-0.204819277,7.722891566,1266.167054,-1,1217.582418
1.43507E+12,6.120481928,-0.204819277,7.734939759,1266.898205,-1,1213.919414
1.43507E+12,6.120481928,-0.21686747,7.734939759,1266.167054,-1,1213.186813
1.43507E+12,6.156626506,-0.240963855,7.734939759,1265.436747,-1,1210.989011
1.43507E+12,6.168674699,-0.21686747,7.734939759,1266.167054,-1,1207.326007
1.43507E+12,6.156626506,-0.192771084,7.734939759,1266.167054,-1,1201.465201
1.43507E+12,6.144578313,-0.21686747,7.746987952,1266.167054,-1,1197.069597
1.43507E+12,6.156626506,-0.204819277,7.734939759,1266.898205,-1,1193.406593
1.43507E+12,6.156626506,-0.21686747,7.759036145,1266.167054,-1,1189.74359
1.43507E+12,6.144578313,-0.21686747,7.746987952,1266.167054,-1,1189.010989
1.43507E+12,6.144578313,-0.21686747,7.710843373,1266.167054,-1,1186.813187
1.43507E+12,6.144578313,-0.21686747,7.722891566,1266.167054,-1,1188.278388
1.43507E+12,6.180722892,-0.204819277,7.698795181,1266.167054,-1,1192.673993
1.43507E+12,6.192771084,-0.204819277,7.710843373,1266.167054,-1,1197.802198
1.43507E+12,6.192771084,-0.204819277,7.722891566,1266.167054,-1,1205.128205
1.43507E+12,6.180722892,-0.192771084,7.722891566,1266.167054,-1,1215.384615
1.43507E+12,6.180722892,-0.192771084,7.722891566,1266.167054,-1,1230.03663
1.43507E+12,6.156626506,-0.21686747,7.746987952,1266.167054,-1,1249.81685
1.43507E+12,6.156626506,-0.228915663,7.722891566,1266.167054,-1,1276.923077
1.43507E+12,6.120481928,-0.21686747,7.710843373,1266.167054,-1,1312.820513
1.43507E+12,6.13253012,-0.21686747,7.722891566,1266.167054,-1,1355.311355
1.43507E+12,6.156626506,-0.21686747,7.759036145,1266.167054,-1,1402.930403
1.43507E+12,6.180722892,-0.228915663,7.710843373,1266.167054,-1,1453.479853
1.43507E+12,6.156626506,-0.204819277,7.722891566,1266.167054,-1,1505.494505
1.43507E+12,6.144578313,-0.204819277,7.734939759,1266.898205,-1,1556.776557
1.43507E+12,6.180722892,-0.228915663,7.734939759,1266.898205,-1,1605.128205
1.43507E+12,6.21686747,-0.228915663,7.722891566,1265.436747,-1,1647.619048
1.43507E+12,6.204819277,-0.21686747,7.734939759,1266.167054,-1,1682.783883
1.43507E+12,6.144578313,-0.204819277,7.722891566,1266.167054,-1,1709.89011
1.43507E+12,6.13253012,-0.21686747,7.722891566,1266.167054,-1,1731.135531
1.43507E+12,6.13253012,-0.204819277,7.746987952,1266.167054,-1,1746.520147
1.43507E+12,6.192771084,-0.204819277,7.734939759,1266.167054,-1,1758.241758
1.43507E+12,6.144578313,-0.204819277,7.734939759,1266.898205,-1,1764.102564
1.43507E+12,6.13253012,-0.204819277,7.722891566,1265.436747,-1,1766.300366
1.43507E+12,6.13253012,-0.21686747,7.710843373,1266.167054,-1,1765.567766
1.43507E+12,6.144578313,-0.240963855,7.734939759,1266.898205,-1,1761.904762
1.43507E+12,6.168674699,-0.228915663,7.722891566,1266.167054,-1,1755.311355
1.43507E+12,6.180722892,-0.228915663,7.710843373,1265.436747,-1,1747.985348
1.43507E+12,6.156626506,-0.204819277,7.746987952,1265.436747,-1,1734.065934
1.43507E+12,6.144578313,-0.204819277,7.722891566,1266.167054,-1,1718.681319
1.43507E+12,6.144578313,-0.192771084,7.734939759,1266.167054,-1,1698.901099
1.43507E+12,6.156626506,-0.228915663,7.759036145,1266.167054,-1,1676.190476
1.43507E+12,6.13253012,-0.21686747,7.734939759,1266.167054,-1,1653.479853
1.43507E+12,6.120481928,-0.240963855,7.722891566,1266.167054,-1,1629.304029
1.43507E+12,6.144578313,-0.21686747,7.734939759,1266.167054,-1,1610.25641
1.43507E+12,6.168674699,-0.228915663,7.722891566,1266.167054,-1,1598.534799
1.43507E+12,6.180722892,-0.21686747,7.734939759,1265.436747,-1,1589.010989
1.43507E+12,6.204819277,-0.192771084,7.722891566,1266.167054,-1,1581.684982
1.43507E+12,6.204819277,-0.180722892,7.734939759,1266.898205,-1,1577.289377
1.43507E+12,6.168674699,-0.168674699,7.734939759,1266.167054,-1,1575.091575
1.43507E+12,6.180722892,-0.192771084,7.734939759,1266.167054,-1,1575.091575
1.43507E+12,6.168674699,-0.204819277,7.722891566,1266.167054,-1,1577.289377
1.43507E+12,6.144578313,-0.204819277,7.734939759,1265.436747,-1,1579.487179
1.43507E+12,6.120481928,-0.21686747,7.746987952,1266.167054,-1,1579.487179
1.43507E+12,6.120481928,-0.228915663,7.746987952,1265.436747,-1,1580.21978
1.43507E+12,6.108433735,-0.240963855,7.746987952,1266.167054,-1,1578.754579
1.43507E+12,6.120481928,-0.240963855,7.746987952,1266.167054,-1,1574.358974
1.43507E+12,6.144578313,-0.240963855,7.734939759,1265.436747,-1,1567.032967
1.43507E+12,6.168674699,-0.204819277,7.722891566,1266.167054,-1,1559.70696
1.43507E+12,6.168674699,-0.204819277,7.722891566,1266.167054,-1,1550.915751
1.43507E+12,6.168674699,-0.204819277,7.710843373,1266.167054,-1,1539.194139
1.43507E+12,6.168674699,-0.204819277,7.722891566,1266.167054,-1,1527.472527
1.43507E+12,6.180722892,-0.192771084,7.722891566,1266.167054,-1,1513.553114
1.43507E+12,6.180722892,-0.204819277,7.722891566,1266.167054,-1,1498.168498
1.43507E+12,6.156626506,-0.228915663,7.734939759,1266.167054,-1,1482.051282
1.43507E+12,6.156626506,-0.228915663,7.734939759,1266.167054,-1,1464.468864
1.43507E+12,6.168674699,-0.21686747,7.734939759,1266.167054,-1,1446.153846
1.43507E+12,6.156626506,-0.204819277,7.759036145,1266.167054,-1,1430.03663
1.43507E+12,6.13253012,-0.192771084,7.722891566,1266.167054,-1,1410.989011
1.43507E+12,6.144578313,-0.228915663,7.734939759,1265.436747,-1,1394.871795
1.43507E+12,6.168674699,-0.21686747,7.734939759,1266.167054,-1,1374.358974
1.43507E+12,6.180722892,-0.21686747,7.722891566,1266.167054,-1,1354.578755
1.43507E+12,6.180722892,-0.21686747,7.722891566,1266.167054,-1,1335.531136
1.43507E+12,6.144578313,-0.21686747,7.722891566,1266.898205,-1,1317.948718
1.43507E+12,6.156626506,-0.21686747,7.710843373,1265.436747,-1,1304.761905
1.43507E+12,6.144578313,-0.228915663,7.722891566,1265.436747,-1,1293.040293
1.43507E+12,6.144578313,-0.21686747,7.722891566,1266.167054,-1,1282.051282
1.43507E+12,6.156626506,-0.204819277,7.722891566,1266.167054,-1,1274.725275
1.43507E+12,6.156626506,-0.204819277,7.734939759,1266.898205,-1,1268.131868
1.43507E+12,6.168674699,-0.21686747,7.734939759,1265.436747,-1,1261.538462
1.43507E+12,6.156626506,-0.204819277,7.734939759,1266.167054,-1,1252.747253
1.43507E+12,6.156626506,-0.204819277,7.722891566,1266.167054,-1,1244.688645
1.43507E+12,6.168674699,-0.204819277,7.746987952,1266.167054,-1,1238.095238
1.43507E+12,6.168674699,-0.21686747,7.746987952,1266.167054,-1,1234.432234
1.43507E+12,6.192771084,-0.21686747,7.710843373,1266.167054,-1,1231.501832
1.43507E+12,6.156626506,-0.204819277,7.734939759,1266.167054,-1,1228.571429
1.43507E+12,6.144578313,-0.240963855,7.746987952,1266.167054,-1,1227.838828
1.43507E+12,6.13253012,-0.21686747,7.722891566,1266.167054,-1,1231.501832
1.43507E+12,6.156626506,-0.240963855,7.722891566,1266.167054,-1,1230.03663
1.43507E+12,6.156626506,-0.204819277,7.734939759,1266.167054,-1,1224.908425
1.43507E+12,6.144578313,-0.21686747,7.746987952,1266.167054,-1,1217.582418
1.43507E+12,6.13253012,-0.21686747,7.722891566,1266.167054,-1,1211.721612
1.43507E+12,6.168674699,-0.228915663,7.746987952,1265.436747,-1,1208.058608
1.43507E+12,6.192771084,-0.204819277,7.734939759,1264.707281,-1,1205.128205
1.43507E+12,6.168674699,-0.204819277,7.734939759,1266.167054,-1,1205.860806
1.43507E+12,6.156626506,-0.204819277,7.722891566,1266.167054,-1,1207.326007
1.43507E+12,6.144578313,-0.204819277,7.734939759,1265.436747,-1,1208.058608
1.43507E+12,6.156626506,-0.21686747,7.746987952,1265.436747,-1,1209.52381
1.43507E+12,6.180722892,-0.204819277,7.734939759,1265.436747,-1,1208.791209
1.43507E+12,6.144578313,-0.21686747,7.722891566,1266.167054,-1,1207.326007
1.43507E+12,6.144578313,-0.192771084,7.722891566,1265.436747,-1,1207.326007
1.43507E+12,6.144578313,-0.21686747,7.734939759,1265.436747,-1,1207.326007
1.43507E+12,6.168674699,-0.228915663,7.722891566,1264.707281,-1,1208.058608
1.43507E+12,6.180722892,-0.21686747,7.722891566,1265.436747,-1,1210.25641
1.43507E+12,6.180722892,-0.204819277,7.710843373,1265.436747,-1,1211.721612
1.43507E+12,6.156626506,-0.204819277,7.734939759,1265.436747,-1,1213.186813
1.43507E+12,6.144578313,-0.192771084,7.734939759,1265.436747,-1,1215.384615
1.43507E+12,6.156626506,-0.192771084,7.746987952,1265.436747,-1,1218.315018
1.43507E+12,6.180722892,-0.204819277,7.734939759,1265.436747,-1,1220.512821
1.43507E+12,6.156626506,-0.204819277,7.746987952,1266.167054,-1,1221.245421
1.43507E+12,6.144578313,-0.21686747,7.722891566,1265.436747,-1,1222.710623
1.43507E+12,6.144578313,-0.240963855,7.734939759,1265.436747,-1,1223.443223
1.43507E+12,6.180722892,-0.21686747,7.710843373,1265.436747,-1,1221.978022
1.43507E+12,6.180722892,-0.204819277,7.734939759,1264.707281,-1,1222.710623
1.43507E+12,6.156626506,-0.204819277,7.734939759,1266.167054,-1,1221.245421
1.43507E+12,6.144578313,-0.204819277,7.734939759,1265.436747,-1,1221.245421
1.43507E+12,6.168674699,-0.204819277,7.722891566,1265.436747,-1,1221.245421
1.43507E+12,6.144578313,-0.228915663,7.722891566,1264.707281,-1,1220.512821
1.43507E+12,6.168674699,-0.204819277,7.734939759,1265.436747,-1,1216.849817
1.43507E+12,6.144578313,-0.204819277,7.722891566,1265.436747,-1,1217.582418
1.43507E+12,6.168674699,-0.204819277,7.698795181,1265.436747,-1,1215.384615
1.43507E+12,6.144578313,-0.21686747,7.710843373,1265.436747,-1,1210.989011
1.43507E+12,6.168674699,-0.204819277,7.710843373,1266.167054,-1,1205.860806
1.43507E+12,6.180722892,-0.21686747,7.710843373,1265.436747,-1,1201.465201
1.43507E+12,6.192771084,-0.228915663,7.722891566,1265.436747,-1,1200.732601
1.43507E+12,6.156626506,-0.228915663,7.722891566,1265.436747,-1,1203.663004
1.43507E+12,6.156626506,-0.21686747,7.734939759,1265.436747,-1,1209.52381
1.43507E+12,6.156626506,-0.204819277,7.710843373,1265.436747,-1,1214.652015
1.43507E+12,6.180722892,-0.204819277,7.710843373,1266.167054,-1,1219.78022
1.43507E+12,6.192771084,-0.204819277,7.722891566,1265.436747,-1,1224.908425
1.43507E+12,6.180722892,-0.192771084,7.710843373,1266.167054,-1,1229.304029
1.43507E+12,6.156626506,-0.192771084,7.722891566,1266.167054,-1,1230.03663
1.43507E+12,6.156626506,-0.204819277,7.734939759,1266.898205,-1,1227.106227
1.43507E+12,6.13253012,-0.21686747,7.722891566,1266.167054,-1,1221.245421
1.43507E+12,6.144578313,-0.228915663,7.746987952,1265.436747,-1,1213.919414
1.43507E+12,6.156626506,-0.240963855,7.734939759,1265.436747,-1,1207.326007
1.43507E+12,6.144578313,-0.21686747,7.734939759,1265.436747,-1,1202.197802
1.43507E+12,6.144578313,-0.204819277,7.734939759,1266.167054,-1,1199.267399
1.43507E+12,6.156626506,-0.192771084,7.734939759,1265.436747,-1,1199.267399
1.43507E+12,6.168674699,-0.204819277,7.722891566,1265.436747,-1,1202.930403
1.43507E+12,6.156626506,-0.204819277,7.746987952,1265.436747,-1,1204.395604
1.43507E+12,6.144578313,-0.204819277,7.722891566,1264.707281,-1,1205.860806
1.43507E+12,6.144578313,-0.228915663,7.722891566,1266.167054,-1,1208.791209
1.43507E+12,6.156626506,-0.21686747,7.710843373,1265.436747,-1,1210.25641
1.43507E+12,6.180722892,-0.192771084,7.722891566,1265.436747,-1,1213.919414
1.43507E+12,6.180722892,-0.204819277,7.722891566,1265.436747,-1,1224.175824
1.43507E+12,6.180722892,-0.192771084,7.722891566,1265.436747,-1,1233.699634
1.43507E+12,6.180722892,-0.21686747,7.722891566,1265.436747,-1,1247.619048
1.43507E+12,6.204819277,-0.21686747,7.734939759,1266.167054,-1,1263.736264
1.43507E+12,6.180722892,-0.204819277,7.734939759,1264.707281,-1,1287.179487
1.43507E+12,6.156626506,-0.204819277,7.722891566,1266.167054,-1,1317.216117
1.43507E+12,6.144578313,-0.240963855,7.722891566,1265.436747,-1,1356.776557
1.43507E+12,6.13253012,-0.253012048,7.722891566,1266.167054,-1,1404.395604
1.43507E+12,6.156626506,-0.240963855,7.734939759,1265.436747,-1,1457.875458
1.43507E+12,6.180722892,-0.21686747,7.722891566,1266.167054,-1,1513.553114
1.43507E+12,6.156626506,-0.228915663,7.710843373,1266.167054,-1,1572.161172
1.43507E+12,6.168674699,-0.21686747,7.722891566,1266.167054,-1,1625.641026
1.43507E+12,6.180722892,-0.204819277,7.734939759,1266.167054,-1,1675.457875
1.43507E+12,6.204819277,-0.180722892,7.734939759,1266.167054,-1,1723.076923
1.43507E+12,6.180722892,-0.204819277,7.722891566,1265.436747,-1,1762.637363
1.43507E+12,6.168674699,-0.192771084,7.734939759,1266.167054,-1,1794.139194
1.43507E+12,6.156626506,-0.192771084,7.746987952,1266.167054,-1,1817.582418
1.43507E+12,6.156626506,-0.21686747,7.722891566,1266.167054,-1,1832.967033
1.43507E+12,6.144578313,-0.228915663,7.722891566,1265.436747,-1,1841.025641
1.43507E+12,6.144578313,-0.21686747,7.746987952,1265.436747,-1,1839.56044
1.43507E+12,6.13253012,-0.204819277,7.710843373,1266.167054,-1,1835.897436
1.43507E+12,6.144578313,-0.21686747,7.722891566,1265.436747,-1,1828.571429
1.43507E+12,6.156626506,-0.228915663,7.722891566,1265.436747,-1,1818.315018
1.43507E+12,6.204819277,-0.21686747,7.722891566,1266.167054,-1,1807.326007
1.43507E+12,6.192771084,-0.228915663,7.722891566,1265.436747,-1,1794.871795
1.43507E+12,6.156626506,-0.180722892,7.734939759,1266.167054,-1,1780.952381
1.43507E+12,6.13253012,-0.180722892,7.734939759,1265.436747,-1,1769.230769
1.43507E+12,6.13253012,-0.192771084,7.722891566,1266.167054,-1,1752.380952
1.43507E+12,6.144578313,-0.21686747,7.722891566,1266.167054,-1,1734.065934
1.43507E+12,6.144578313,-0.228915663,7.734939759,1266.167054,-1,1712.820513
1.43507E+12,6.13253012,-0.240963855,7.722891566,1266.167054,-1,1693.772894
1.43507E+12,6.180722892,-0.228915663,7.734939759,1266.167054,-1,1672.527473
1.43507E+12,6.180722892,-0.204819277,7.722891566,1266.167054,-1,1651.282051
1.43507E+12,6.180722892,-0.192771084,7.710843373,1266.167054,-1,1629.304029
1.43507E+12,6.192771084,-0.192771084,7.710843373,1266.167054,-1,1607.326007
1.43507E+12,6.204819277,-0.204819277,7.710843373,1266.167054,-1,1588.278388
1.43507E+12,6.204819277,-0.168674699,7.722891566,1266.167054,-1,1573.626374
1.43507E+12,6.180722892,-0.204819277,7.710843373,1266.167054,-1,1563.369963
1.43507E+12,6.156626506,-0.21686747,7.734939759,1265.436747,-1,1558.974359
1.43507E+12,6.13253012,-0.21686747,7.734939759,1266.167054,-1,1556.043956
1.43507E+12,6.108433735,-0.21686747,7.722891566,1265.436747,-1,1556.776557
1.43507E+12,6.120481928,-0.204819277,7.734939759,1266.898205,-1,1556.043956
1.43507E+12,6.144578313,-0.204819277,7.722891566,1266.167054,-1,1555.311355
1.43507E+12,6.156626506,-0.204819277,7.734939759,1266.898205,-1,1556.043956
1.43507E+12,6.168674699,-0.228915663,7.734939759,1265.436747,-1,1552.380952
1.43507E+12,6.144578313,-0.228915663,7.722891566,1266.167054,-1,1545.787546
1.43507E+12,6.156626506,-0.21686747,7.722891566,1266.898205,-1,1540.659341
1.43507E+12,6.168674699,-0.21686747,7.710843373,1266.167054,-1,1531.868132
1.43507E+12,6.180722892,-0.204819277,7.710843373,1266.898205,-1,1520.879121
1.43507E+12,6.180722892,-0.204819277,7.710843373,1266.898205,-1,1509.157509
1.43507E+12,6.180722892,-0.192771084,7.698795181,1266.167054,-1,1496.703297
1.43507E+12,6.180722892,-0.204819277,7.710843373,1266.898205,-1,1482.783883
1.43507E+12,6.168674699,-0.21686747,7.722891566,1266.167054,-1,1468.864469
1.43507E+12,6.180722892,-0.21686747,7.710843373,1266.167054,-1,1457.875458
1.43507E+12,6.168674699,-0.21686747,7.710843373,1266.167054,-1,1446.153846
1.43507E+12,6.180722892,-0.204819277,7.722891566,1266.167054,-1,1432.234432
1.43507E+12,6.180722892,-0.204819277,7.722891566,1266.898205,-1,1420.512821
1.43507E+12,6.180722892,-0.204819277,7.722891566,1266.167054,-1,1406.593407
1.43507E+12,6.180722892,-0.21686747,7.710843373,1266.167054,-1,1394.871795
1.43507E+12,6.168674699,-0.21686747,7.722891566,1266.898205,-1,1380.21978
1.43507E+12,6.156626506,-0.21686747,7.722891566,1266.898205,-1,1367.032967
1.43507E+12,6.168674699,-0.21686747,7.710843373,1266.898205,-1,1352.380952
1.43507E+12,6.180722892,-0.21686747,7.722891566,1266.167054,-1,1337.728938
1.43507E+12,6.168674699,-0.21686747,7.722891566,1266.167054,-1,1325.274725
1.43507E+12,6.180722892,-0.204819277,7.734939759,1266.898205,-1,1312.820513
1.43507E+12,6.192771084,-0.21686747,7.722891566,1266.898205,-1,1301.831502
1.43507E+12,6.168674699,-0.21686747,7.722891566,1266.167054,-1,1294.505495
1.43507E+12,6.156626506,-0.204819277,7.710843373,1266.898205,-1,1289.377289
1.43507E+12,6.180722892,-0.204819277,7.710843373,1266.167054,-1,1286.446886
1.43507E+12,6.168674699,-0.204819277,7.722891566,1267.630201,-1,1282.051282
1.43507E+12,6.180722892,-0.21686747,7.710843373,1267.630201,-1,1280.586081
1.43507E+12,6.180722892,-0.204819277,7.722891566,1267.630201,-1,1279.120879
1.43507E+12,6.180722892,-0.21686747,7.710843373,1266.898205,-1,1276.190476
1.43507E+12,6.168674699,-0.204819277,7.722891566,1267.630201,-1,1273.992674
1.43507E+12,6.168674699,-0.21686747,7.710843373,1266.898205,-1,1270.32967
1.43507E+12,6.168674699,-0.204819277,7.710843373,1266.898205,-1,1267.399267
1.43507E+12,6.156626506,-0.21686747,7.710843373,1266.898205,-1,1264.468864
1.43507E+12,6.180722892,-0.21686747,7.722891566,1267.630201,-1,1260.07326
1.43507E+12,6.156626506,-0.228915663,7.722891566,1266.898205,-1,1256.410256
1.43507E+12,6.156626506,-0.21686747,7.710843373,1267.630201,-1,1251.282051
1.43507E+12,6.156626506,-0.21686747,7.722891566,1267.630201,-1,1246.153846
1.43507E+12,6.156626506,-0.204819277,7.710843373,1266.898205,-1,1237.362637
1.43507E+12,6.180722892,-0.180722892,7.710843373,1266.898205,-1,1229.304029
1.43507E+12,6.156626506,-0.228915663,7.722891566,1266.898205,-1,1221.245421
1.43507E+12,6.192771084,-0.204819277,7.722891566,1267.630201,-1,1216.117216
1.43507E+12,6.180722892,-0.204819277,7.722891566,1267.630201,-1,1211.721612
1.43507E+12,6.168674699,-0.204819277,7.698795181,1266.898205,-1,1208.791209
1.43507E+12,6.180722892,-0.192771084,7.710843373,1267.630201,-1,1208.058608
1.43507E+12,6.180722892,-0.228915663,7.698795181,1266.898205,-1,1207.326007
1.43507E+12,6.192771084,-0.21686747,7.722891566,1267.630201,-1,1205.860806
1.43507E+12,6.168674699,-0.204819277,7.710843373,1267.630201,-1,1203.663004
1.43507E+12,6.168674699,-0.21686747,7.722891566,1267.630201,-1,1205.128205
1.43507E+12,6.156626506,-0.228915663,7.722891566,1267.630201,-1,1205.860806
1.43507E+12,6.156626506,-0.192771084,7.746987952,1267.630201,-1,1205.860806
1.43507E+12,6.168674699,-0.21686747,7.710843373,1267.630201,-1,1207.326007
1.43507E+12,6.180722892,-0.204819277,7.710843373,1268.363043,-1,1207.326007
1.43507E+12,6.192771084,-0.204819277,7.710843373,1267.630201,-1,1206.593407
1.43507E+12,6.168674699,-0.204819277,7.698795181,1267.630201,-1,1205.128205
1.43507E+12,6.168674699,-0.192771084,7.698795181,1267.630201,-1,1205.128205
1.43507E+12,6.156626506,-0.21686747,7.722891566,1267.630201,-1,1203.663004
1.43507E+12,6.180722892,-0.204819277,7.710843373,1268.363043,-1,1201.465201
1.43507E+12,6.156626506,-0.21686747,7.722891566,1267.630201,-1,1201.465201
1.43507E+12,6.168674699,-0.204819277,7.710843373,1267.630201,-1,1201.465201
1.43507E+12,6.168674699,-0.21686747,7.722891566,1267.630201,-1,1200
1.43507E+12,6.156626506,-0.21686747,7.722891566,1268.363043,-1,1200.732601
1.43507E+12,6.180722892,-0.204819277,7.734939759,1268.363043,-1,1201.465201
1.43507E+12,6.168674699,-0.21686747,7.710843373,1267.630201,-1,1204.395604
1.43507E+12,6.168674699,-0.204819277,7.698795181,1267.630201,-1,1206.593407
1.43507E+12,6.168674699,-0.21686747,7.710843373,1267.630201,-1,1211.721612
1.43507E+12,6.180722892,-0.228915663,7.722891566,1268.363043,-1,1215.384615
1.43507E+12,6.192771084,-0.21686747,7.722891566,1267.630201,-1,1219.78022
1.43507E+12,6.192771084,-0.228915663,7.722891566,1268.363043,-1,1224.175824
1.43507E+12,6.168674699,-0.21686747,7.710843373,1268.363043,-1,1229.304029
1.43507E+12,6.156626506,-0.192771084,7.722891566,1269.096733,-1,1232.967033
1.43507E+12,6.156626506,-0.21686747,7.722891566,1268.363043,-1,1235.164835
1.43507E+12,6.156626506,-0.192771084,7.722891566,1269.096733,-1,1237.362637
1.43507E+12,6.192771084,-0.192771084,7.698795181,1268.363043,-1,1236.630037
1.43507E+12,6.21686747,-0.204819277,7.710843373,1268.363043,-1,1235.897436
1.43507E+12,6.192771084,-0.204819277,7.698795181,1268.363043,-1,1232.967033
1.43507E+12,6.156626506,-0.192771084,7.722891566,1268.363043,-1,1231.501832
1.43507E+12,6.168674699,-0.204819277,7.722891566,1268.363043,-1,1227.106227
1.43507E+12,6.156626506,-0.21686747,7.746987952,1268.363043,-1,1223.443223
1.43507E+12,6.144578313,-0.228915663,7.722891566,1268.363043,-1,1220.512821
1.43507E+12,6.144578313,-0.21686747,7.722891566,1268.363043,-1,1219.78022
1.43507E+12,6.180722892,-0.228915663,7.710843373,1268.363043,-1,1219.78022
1.43507E+12,6.192771084,-0.204819277,7.674698795,1268.363043,-1,1221.978022
1.43507E+12,6.180722892,-0.204819277,7.746987952,1267.630201,-1,1222.710623
1.43507E+12,6.253012048,-0.228915663,7.746987952,1268.363043,-1,1221.978022
1.43507E+12,6.240963855,-0.204819277,7.686746988,1268.363043,-1,1220.512821
1.43507E+12,6.156626506,-0.21686747,7.759036145,1268.363043,-1,1220.512821
1.43507E+12,6.120481928,-0.192771084,7.722891566,1268.363043,-1,1219.78022
1.43507E+12,6.180722892,-0.204819277,7.710843373,1269.096733,-1,1219.78022
1.43507E+12,6.204819277,-0.204819277,7.674698795,1268.363043,-1,1220.512821
1.43507E+12,6.168674699,-0.192771084,7.674698795,1269.096733,-1,1222.710623
1.43507E+12,6.120481928,-0.21686747,7.674698795,1268.363043,-1,1226.373626
1.43507E+12,6.144578313,-0.228915663,7.734939759,1269.096733,-1,1231.501832
1.43507E+12,6.21686747,-0.21686747,7.759036145,1269.096733,-1,1242.490842
1.43507E+12,6.192771084,-0.21686747,7.722891566,1268.363043,-1,1262.271062
1.43507E+12,6.144578313,-0.204819277,7.746987952,1268.363043,-1,1288.644689
1.43507E+12,6.13253012,-0.192771084,7.698795181,1269.096733,-1,1322.344322
1.43507E+12,6.168674699,-0.204819277,7.698795181,1269.096733,-1,1361.172161
1.43507E+12,6.204819277,-0.240963855,7.710843373,1269.096733,-1,1406.593407
1.43507E+12,6.192771084,-0.253012048,7.686746988,1268.363043,-1,1459.340659
1.43507E+12,6.156626506,-0.240963855,7.698795181,1269.831272,-1,1515.018315
1.43507E+12,6.144578313,-0.228915663,7.710843373,1269.096733,-1,1570.695971
1.43507E+12,6.180722892,-0.21686747,7.722891566,1269.096733,-1,1621.978022
1.43507E+12,6.228915663,-0.21686747,7.722891566,1269.096733,-1,1670.32967
1.43507E+12,6.240963855,-0.21686747,7.734939759,1269.096733,-1,1711.355311
1.43507E+12,6.168674699,-0.192771084,7.734939759,1269.096733,-1,1743.589744
1.43507E+12,6.204819277,-0.192771084,7.698795181,1269.096733,-1,1765.567766
1.43507E+12,6.156626506,-0.192771084,7.710843373,1268.363043,-1,1778.754579
1.43507E+12,6.168674699,-0.21686747,7.710843373,1269.096733,-1,1783.150183
1.43507E+12,6.156626506,-0.228915663,7.722891566,1268.363043,59.07692308,1780.952381
1.43507E+12,6.120481928,-0.228915663,7.722891566,1269.096733,59.07692308,1773.626374
1.43507E+12,6.120481928,-0.240963855,7.698795181,1269.096733,59.07692308,1761.172161
1.43507E+12,6.144578313,-0.21686747,7.722891566,1269.096733,59.07692308,1745.054945
1.43507E+12,6.21686747,-0.228915663,7.722891566,1269.831272,59.07692308,1727.472527
1.43507E+12,6.21686747,-0.204819277,7.698795181,1269.831272,59.07692308,1706.959707
1.43507E+12,6.192771084,-0.21686747,7.722891566,1269.096733,59.07692308,1684.249084
1.43507E+12,6.156626506,-0.204819277,7.734939759,1269.096733,59.07692308,1660.07326
1.43507E+12,6.120481928,-0.21686747,7.722891566,1268.363043,59.07692308,1634.432234
1.43507E+12,6.120481928,-0.204819277,7.734939759,1269.831272,59.07692308,1608.791209
1.43507E+12,6.144578313,-0.21686747,7.722891566,1269.096733,59.07692308,1586.813187
1.43507E+12,6.180722892,-0.21686747,7.710843373,1269.096733,59.07692308,1564.835165
1.43507E+12,6.180722892,-0.21686747,7.710843373,1269.831272,59.07692308,1544.322344
1.43507E+12,6.204819277,-0.21686747,7.698795181,1269.096733,59.07692308,1530.40293
1.43507E+12,6.240963855,-0.204819277,7.698795181,1269.096733,59.07692308,1519.413919
1.43507E+12,6.240963855,-0.192771084,7.698795181,1269.096733,59.07692308,1508.424908
1.43507E+12,6.204819277,-0.180722892,7.722891566,1269.096733,59.07692308,1501.098901
1.43507E+12,6.156626506,-0.180722892,7.722891566,1269.831272,59.07692308,1495.970696
1.43507E+12,6.13253012,-0.21686747,7.722891566,1269.096733,59.07692308,1496.703297
1.43507E+12,6.108433735,-0.204819277,7.722891566,1269.831272,59.07692308,1500.3663
1.43507E+12,6.144578313,-0.228915663,7.734939759,1269.831272,59.07692308,1506.227106
1.43507E+12,6.13253012,-0.228915663,7.710843373,1269.831272,59.07692308,1512.820513
1.43507E+12,6.144578313,-0.228915663,7.722891566,1269.831272,59.07692308,1520.879121
1.43507E+12,6.168674699,-0.21686747,7.698795181,1269.831272,59.07692308,1526.739927
1.43507E+12,6.156626506,-0.228915663,7.722891566,1269.831272,59.07692308,1528.205128
1.43507E+12,6.180722892,-0.228915663,7.722891566,1269.831272,59.07692308,1532.600733
1.43507E+12,6.192771084,-0.204819277,7.722891566,1269.096733,59.07692308,1530.40293
1.43507E+12,6.192771084,-0.228915663,7.722891566,1269.831272,59.07692308,1522.344322
1.43507E+12,6.168674699,-0.204819277,7.722891566,1269.831272,59.07692308,1510.622711
1.43507E+12,6.168674699,-0.204819277,7.722891566,1269.831272,59.07692308,1495.970696
1.43507E+12,6.180722892,-0.204819277,7.710843373,1269.831272,59.07692308,1479.85348
1.43507E+12,6.204819277,-0.204819277,7.722891566,1269.831272,59.07692308,1463.736264
1.43507E+12,6.204819277,-0.21686747,7.710843373,1269.831272,59.07692308,1448.351648
1.43507E+12,6.204819277,-0.21686747,7.722891566,1269.831272,59.07692308,1430.03663
1.43507E+12,6.180722892,-0.204819277,7.710843373,1269.831272,59.07692308,1413.919414
1.43507E+12,6.192771084,-0.204819277,7.698795181,1269.831272,59.07692308,1397.802198
1.43507E+12,6.156626506,-0.21686747,7.722891566,1270.566663,59.07692308,1384.615385
1.43507E+12,6.156626506,-0.204819277,7.722891566,1270.566663,59.07692308,1372.893773
1.43507E+12,6.156626506,-0.21686747,7.710843373,1269.831272,59.07692308,1361.904762
1.43507E+12,6.168674699,-0.21686747,7.722891566,1269.831272,59.07692308,1350.18315
1.43507E+12,6.204819277,-0.192771084,7.734939759,1270.566663,59.07692308,1341.391941
1.43507E+12,6.192771084,-0.204819277,7.710843373,1269.831272,59.07692308,1333.333333
1.43507E+12,6.192771084,-0.21686747,7.710843373,1269.831272,59.07692308,1326.739927
1.43507E+12,6.180722892,-0.204819277,7.698795181,1269.831272,59.07692308,1320.14652
1.43507E+12,6.192771084,-0.192771084,7.722891566,1270.566663,59.07692308,1311.355311
1.43507E+12,6.168674699,-0.204819277,7.710843373,1270.566663,59.07692308,1296.703297
1.43507E+12,6.168674699,-0.21686747,7.710843373,1269.831272,59.07692308,1282.783883
1.43507E+12,6.180722892,-0.204819277,7.722891566,1270.566663,59.07692308,1266.666667
1.43507E+12,6.168674699,-0.21686747,7.722891566,1269.831272,59.07692308,1253.479853
1.43507E+12,6.204819277,-0.21686747,7.722891566,1270.566663,59.07692308,1241.758242
1.43507E+12,6.192771084,-0.21686747,7.698795181,1270.566663,59.07692308,1231.501832
1.43507E+12,6.180722892,-0.204819277,7.698795181,1270.566663,59.07692308,1223.443223
1.43507E+12,6.180722892,-0.21686747,7.722891566,1270.566663,59.07692308,1218.315018
1.43507E+12,6.180722892,-0.204819277,7.710843373,1270.566663,59.07692308,1213.186813
1.43507E+12,6.192771084,-0.204819277,7.710843373,1269.831272,59.07692308,1210.25641
1.43507E+12,6.156626506,-0.204819277,7.698795181,1270.566663,59.07692308,1208.791209
1.43507E+12,6.156626506,-0.192771084,7.722891566,1270.566663,59.07692308,1208.058608
1.43507E+12,6.156626506,-0.21686747,7.734939759,1270.566663,59.07692308,1207.326007
1.43507E+12,6.204819277,-0.204819277,7.722891566,1270.566663,59.07692308,1210.25641
1.43507E+12,6.204819277,-0.21686747,7.722891566,1270.566663,59.07692308,1214.652015
1.43507E+12,6.192771084,-0.21686747,7.722891566,1270.566663,59.07692308,1217.582418
1.43507E+12,6.168674699,-0.204819277,7.710843373,1271.302905,59.07692308,1224.908425
1.43507E+12,6.168674699,-0.204819277,7.722891566,1270.566663,59.07692308,1230.769231
1.43507E+12,6.168674699,-0.204819277,7.710843373,1271.302905,59.07692308,1235.164835
1.43507E+12,6.168674699,-0.192771084,7.722891566,1270.566663,59.07692308,1238.827839
1.43507E+12,6.144578313,-0.204819277,7.722891566,1271.302905,59.07692308,1240.29304
1.43507E+12,6.156626506,-0.228915663,7.722891566,1270.566663,59.07692308,1241.025641
1.43507E+12,6.180722892,-0.204819277,7.710843373,1270.566663,59.07692308,1241.758242
1.43507E+12,6.168674699,-0.204819277,7.710843373,1271.302905,59.07692308,1241.025641
1.43507E+12,6.180722892,-0.204819277,7.722891566,1271.302905,59.07692308,1238.827839
1.43507E+12,6.180722892,-0.204819277,7.722891566,1270.566663,59.07692308,1238.095238
1.43507E+12,6.180722892,-0.204819277,7.734939759,1270.566663,59.07692308,1235.897436
1.43507E+12,6.180722892,-0.21686747,7.722891566,1271.302905,59.07692308,1234.432234
1.43507E+12,6.156626506,-0.192771084,7.722891566,1271.302905,59.07692308,1233.699634
1.43507E+12,6.144578313,-0.21686747,7.722891566,1270.566663,59.07692308,1235.164835
1.43507E+12,6.156626506,-0.204819277,7.722891566,1270.566663,59.07692308,1234.432234
1.43507E+12,6.156626506,-0.21686747,7.710843373,1270.566663,59.07692308,1232.967033
1.43507E+12,6.168674699,-0.21686747,7.734939759,1271.302905,59.07692308,1230.769231
1.43507E+12,6.156626506,-0.204819277,7.746987952,1270.566663,59.07692308,1228.571429
1.43507E+12,6.156626506,-0.21686747,7.746987952,1271.302905,59.07692308,1227.106227
1.43507E+12,6.156626506,-0.192771084,7.746987952,1270.566663,59.07692308,1224.908425
1.43507E+12,6.144578313,-0.204819277,7.722891566,1272.040001,59.07692308,1222.710623
1.43507E+12,6.13253012,-0.204819277,7.734939759,1271.302905,59.07692308,1220.512821
1.43507E+12,6.156626506,-0.204819277,7.722891566,1271.302905,59.07692308,1217.582418
1.43507E+12,6.168674699,-0.21686747,7.710843373,1271.302905,59.07692308,1217.582418
1.43507E+12,6.180722892,-0.21686747,7.710843373,1270.566663,59.07692308,1216.117216
1.43507E+12,6.192771084,-0.21686747,7.734939759,1271.302905,59.07692308,1215.384615
1.43507E+12,6.180722892,-0.204819277,7.734939759,1271.302905,59.07692308,1215.384615
1.43507E+12,6.156626506,-0.192771084,7.746987952,1271.302905,59.07692308,1217.582418
1.43507E+12,6.156626506,-0.192771084,7.734939759,1271.302905,59.07692308,1221.978022
1.43507E+12,6.156626506,-0.204819277,7.710843373,1271.302905,59.07692308,1224.908425
1.43507E+12,6.180722892,-0.192771084,7.722891566,1272.040001,59.07692308,1229.304029
1.43507E+12,6.192771084,-0.192771084,7.710843373,1272.040001,59.07692308,1233.699634
1.43507E+12,6.180722892,-0.204819277,7.734939759,1271.302905,59.07692308,1236.630037
1.43507E+12,6.180722892,-0.21686747,7.722891566,1271.302905,59.07692308,1240.29304
1.43507E+12,6.180722892,-0.21686747,7.734939759,1271.302905,59.07692308,1242.490842
1.43507E+12,6.144578313,-0.204819277,7.734939759,1272.040001,59.07692308,1242.490842
1.43507E+12,6.144578313,-0.21686747,7.734939759,1271.302905,59.07692308,1243.223443
1.43507E+12,6.144578313,-0.228915663,7.734939759,1271.302905,59.07692308,1241.758242
1.43507E+12,6.180722892,-0.204819277,7.710843373,1271.302905,59.07692308,1239.56044
1.43507E+12,6.180722892,-0.192771084,7.710843373,1271.302905,59.07692308,1239.56044
1.43507E+12,6.180722892,-0.192771084,7.734939759,1272.040001,59.07692308,1238.095238
1.43507E+12,6.156626506,-0.192771084,7.734939759,1271.302905,59.07692308,1236.630037
1.43507E+12,6.156626506,-0.21686747,7.734939759,1271.302905,59.07692308,1235.897436
1.43507E+12,6.156626506,-0.228915663,7.734939759,1272.040001,59.07692308,1232.967033
1.43507E+12,6.168674699,-0.228915663,7.722891566,1271.302905,59.07692308,1232.234432
1.43507E+12,6.180722892,-0.204819277,7.722891566,1272.040001,59.07692308,1233.699634
1.43507E+12,6.180722892,-0.192771084,7.722891566,1271.302905,59.07692308,1233.699634
1.43507E+12,6.204819277,-0.180722892,7.722891566,1272.040001,59.07692308,1237.362637
1.43507E+12,6.192771084,-0.192771084,7.710843373,1272.040001,59.07692308,1244.688645
1.43507E+12,6.168674699,-0.204819277,7.710843373,1271.302905,59.07692308,1257.875458
1.43507E+12,6.192771084,-0.204819277,7.722891566,1272.040001,59.07692308,1276.190476
1.43507E+12,6.144578313,-0.204819277,7.722891566,1272.040001,59.07692308,1301.831502
1.43507E+12,6.156626506,-0.21686747,7.734939759,1272.040001,59.07692308,1334.065934
1.43507E+12,6.144578313,-0.21686747,7.722891566,1272.040001,59.07692308,1371.428571
1.43507E+12,6.144578313,-0.204819277,7.722891566,1272.040001,59.07692308,1414.652015
1.43507E+12,6.156626506,-0.21686747,7.710843373,1272.040001,59.07692308,1462.271062
1.43507E+12,6.168674699,-0.204819277,7.722891566,1272.777952,59.07692308,1513.553114
1.43507E+12,6.168674699,-0.21686747,7.734939759,1271.302905,59.07692308,1569.230769
1.43507E+12,6.168674699,-0.21686747,7.734939759,1272.777952,59.07692308,1621.978022
1.43507E+12,6.168674699,-0.21686747,7.734939759,1272.777952,59.07692308,1670.32967
1.43507E+12,6.192771084,-0.204819277,7.734939759,1272.040001,59.07692308,1714.285714
1.43507E+12,6.168674699,-0.192771084,7.722891566,1272.040001,59.07692308,1750.18315
1.43507E+12,6.180722892,-0.192771084,7.710843373,1272.040001,59.07692308,1777.289377
1.43507E+12,6.156626506,-0.180722892,7.734939759,1272.040001,59.07692308,1798.534799
1.43507E+12,6.192771084,-0.192771084,7.722891566,1272.777952,59.07692308,1810.25641
1.43507E+12,6.180722892,-0.21686747,7.722891566,1271.302905,59.07692308,1817.582418
1.43507E+12,6.156626506,-0.192771084,7.722891566,1272.040001,57.7443609,1817.582418
1.43507E+12,6.144578313,-0.21686747,7.722891566,1271.302905,57.7443609,1813.186813
1.43507E+12,6.144578313,-0.228915663,7.722891566,1272.777952,57.7443609,1803.663004
1.43507E+12,6.144578313,-0.228915663,7.734939759,1272.777952,57.7443609,1794.139194
1.43507E+12,6.156626506,-0.204819277,7.710843373,1272.040001,57.7443609,1785.347985
1.43507E+12,6.180722892,-0.180722892,7.710843373,1272.777952,57.7443609,1773.626374
1.43507E+12,6.192771084,-0.180722892,7.722891566,1272.040001,57.7443609,1760.43956
1.43507E+12,6.156626506,-0.192771084,7.722891566,1272.777952,57.7443609,1742.124542
1.43507E+12,6.13253012,-0.204819277,7.734939759,1272.777952,57.7443609,1720.14652
1.43507E+12,6.108433735,-0.204819277,7.734939759,1272.777952,57.7443609,1698.168498
1.43507E+12,6.13253012,-0.204819277,7.746987952,1272.777952,57.7443609,1674.725275
1.43507E+12,6.120481928,-0.228915663,7.746987952,1272.040001,57.7443609,1651.282051
1.43507E+12,6.156626506,-0.21686747,7.722891566,1272.777952,57.7443609,1630.769231
1.43507E+12,6.168674699,-0.204819277,7.722891566,1272.777952,57.7443609,1610.989011
1.43507E+12,6.21686747,-0.204819277,7.722891566,1272.040001,57.7443609,1594.139194
1.43507E+12,6.21686747,-0.192771084,7.710843373,1272.040001,57.7443609,1581.684982
1.43507E+12,6.21686747,-0.180722892,7.710843373,1272.040001,57.7443609,1570.695971
1.43507E+12,6.204819277,-0.192771084,7.710843373,1272.040001,57.7443609,1561.172161
1.43507E+12,6.168674699,-0.192771084,7.722891566,1272.777952,57.7443609,1553.113553
1.43507E+12,6.156626506,-0.192771084,7.722891566,1272.040001,57.7443609,1547.985348
1.43507E+12,6.13253012,-0.204819277,7.746987952,1272.777952,57.7443609,1543.589744
1.43507E+12,6.13253012,-0.204819277,7.722891566,1272.040001,57.7443609,1542.124542
1.43507E+12,6.120481928,-0.228915663,7.722891566,1272.777952,57.7443609,1542.857143
1.43507E+12,6.120481928,-0.21686747,7.722891566,1272.777952,57.7443609,1543.589744
1.43507E+12,6.144578313,-0.204819277,7.722891566,1272.040001,57.7443609,1544.322344
1.43507E+12,6.180722892,-0.204819277,7.698795181,1272.777952,57.7443609,1546.520147
1.43507E+12,6.192771084,-0.192771084,7.722891566,1272.777952,57.7443609,1547.985348
1.43507E+12,6.180722892,-0.204819277,7.722891566,1272.777952,57.7443609,1547.985348
1.43507E+12,6.168674699,-0.192771084,7.722891566,1272.777952,57.7443609,1545.054945
1.43507E+12,6.156626506,-0.192771084,7.734939759,1272.777952,57.7443609,1540.659341
1.43507E+12,6.156626506,-0.204819277,7.734939759,1272.777952,57.7443609,1531.868132
1.43507E+12,6.156626506,-0.204819277,7.722891566,1272.777952,57.7443609,1519.413919
1.43507E+12,6.168674699,-0.21686747,7.722891566,1272.777952,57.7443609,1503.296703
1.43507E+12,6.168674699,-0.204819277,7.722891566,1272.777952,57.7443609,1487.912088
1.43507E+12,6.192771084,-0.21686747,7.722891566,1272.777952,57.7443609,1471.062271
1.43507E+12,6.192771084,-0.204819277,7.710843373,1272.777952,57.7443609,1452.014652
1.43507E+12,6.168674699,-0.21686747,7.698795181,1272.777952,57.7443609,1432.234432
1.43507E+12,6.168674699,-0.21686747,7.722891566,1272.777952,57.7443609,1410.25641
1.43507E+12,6.168674699,-0.204819277,7.722891566,1273.51676,57.7443609,1389.010989
1.43507E+12,6.144578313,-0.192771084,7.734939759,1272.777952,57.7443609,1368.498168
1.43507E+12,6.168674699,-0.21686747,7.734939759,1272.040001,57.7443609,1348.717949
1.43507E+12,6.180722892,-0.204819277,7.722891566,1272.777952,57.7443609,1330.40293
1.43507E+12,6.168674699,-0.204819277,7.722891566,1272.777952,57.7443609,1316.483516
1.43507E+12,6.180722892,-0.204819277,7.710843373,1273.51676,57.7443609,1306.227106
1.43507E+12,6.168674699,-0.21686747,7.722891566,1273.51676,57.7443609,1297.435897
1.43507E+12,6.168674699,-0.21686747,7.722891566,1272.777952,57.7443609,1292.307692
1.43507E+12,6.180722892,-0.192771084,7.734939759,1273.51676,57.7443609,1286.446886
1.43507E+12,6.156626506,-0.204819277,7.722891566,1272.777952,57.7443609,1282.051282
1.43507E+12,6.168674699,-0.228915663,7.734939759,1272.777952,57.7443609,1277.655678
1.43507E+12,6.180722892,-0.204819277,7.722891566,1273.51676,57.7443609,1273.260073
1.43507E+12,6.168674699,-0.204819277,7.722891566,1272.777952,57.7443609,1269.59707
1.43507E+12,6.168674699,-0.204819277,7.734939759,1272.777952,57.7443609,1266.666667
1.43507E+12,6.168674699,-0.204819277,7.734939759,1272.777952,57.7443609,1263.003663
1.43507E+12,6.168674699,-0.21686747,7.722891566,1272.777952,57.7443609,1258.608059
1.43507E+12,6.156626506,-0.21686747,7.734939759,1273.51676,57.7443609,1256.410256
1.43507E+12,6.144578313,-0.192771084,7.734939759,1272.777952,57.7443609,1257.142857
1.43507E+12,6.156626506,-0.192771084,7.734939759,1273.51676,57.7443609,1254.945055
1.43507E+12,6.180722892,-0.192771084,7.698795181,1273.51676,57.7443609,1249.084249
1.43507E+12,6.168674699,-0.204819277,7.722891566,1273.51676,57.7443609,1242.490842
1.43507E+12,6.156626506,-0.192771084,7.734939759,1273.51676,57.7443609,1236.630037
1.43507E+12,6.156626506,-0.204819277,7.734939759,1272.777952,57.7443609,1230.769231
1.43507E+12,6.180722892,-0.192771084,7.734939759,1273.51676,57.7443609,1226.373626
1.43507E+12,6.180722892,-0.192771084,7.710843373,1272.777952,57.7443609,1221.245421
1.43507E+12,6.168674699,-0.192771084,7.722891566,1272.777952,57.7443609,1218.315018
1.43507E+12,6.168674699,-0.228915663,7.734939759,1273.51676,57.7443609,1217.582418
1.43507E+12,6.168674699,-0.204819277,7.734939759,1273.51676,57.7443609,1218.315018
1.43507E+12,6.180722892,-0.21686747,7.734939759,1273.51676,57.7443609,1220.512821
1.43507E+12,6.156626506,-0.204819277,7.722891566,1273.51676,57.7443609,1223.443223
1.43507E+12,6.156626506,-0.204819277,7.722891566,1273.51676,57.7443609,1224.908425
1.43507E+12,6.168674699,-0.21686747,7.722891566,1274.256427,57.7443609,1225.641026
1.43507E+12,6.180722892,-0.204819277,7.722891566,1273.51676,57.7443609,1225.641026
1.43507E+12,6.192771084,-0.21686747,7.734939759,1273.51676,57.7443609,1226.373626
1.43507E+12,6.168674699,-0.21686747,7.722891566,1273.51676,57.7443609,1227.106227
1.43507E+12,6.156626506,-0.192771084,7.734939759,1272.777952,57.7443609,1226.373626
1.43507E+12,6.13253012,-0.204819277,7.722891566,1274.256427,57.7443609,1227.838828
1.43507E+12,6.156626506,-0.204819277,7.734939759,1273.51676,57.7443609,1227.838828
1.43507E+12,6.168674699,-0.204819277,7.722891566,1273.51676,57.7443609,1228.571429
1.43507E+12,6.180722892,-0.204819277,7.734939759,1273.51676,57.7443609,1232.234432
1.43507E+12,6.192771084,-0.192771084,7.722891566,1273.51676,57.7443609,1234.432234
1.43507E+12,6.156626506,-0.192771084,7.722891566,1273.51676,57.7443609,1236.630037
1.43507E+12,6.156626506,-0.204819277,7.722891566,1273.51676,57.7443609,1237.362637
1.43507E+12,6.13253012,-0.204819277,7.734939759,1273.51676,57.7443609,1238.827839
1.43507E+12,6.144578313,-0.21686747,7.722891566,1274.256427,57.7443609,1239.56044
1.43507E+12,6.120481928,-0.21686747,7.722891566,1273.51676,57.7443609,1239.56044
1.43507E+12,6.13253012,-0.240963855,7.734939759,1274.256427,57.7443609,1240.29304
1.43507E+12,6.168674699,-0.21686747,7.746987952,1274.256427,57.7443609,1239.56044
1.43507E+12,6.180722892,-0.204819277,7.734939759,1274.256427,57.7443609,1238.095238
1.43507E+12,6.168674699,-0.180722892,7.710843373,1274.256427,57.7443609,1238.827839
1.43507E+12,6.156626506,-0.192771084,7.722891566,1273.51676,57.7443609,1238.827839
1.43507E+12,6.168674699,-0.180722892,7.746987952,1274.256427,57.7443609,1238.095238
1.43507E+12,6.156626506,-0.204819277,7.759036145,1274.256427,57.7443609,1241.758242
1.43507E+12,6.156626506,-0.21686747,7.746987952,1273.51676,57.7443609,1243.956044
1.43507E+12,6.156626506,-0.21686747,7.746987952,1274.256427,57.7443609,1243.223443
1.43507E+12,6.144578313,-0.21686747,7.722891566,1274.256427,57.7443609,1245.421245
1.43507E+12,6.180722892,-0.204819277,7.710843373,1274.256427,57.7443609,1244.688645
1.43507E+12,6.192771084,-0.192771084,7.722891566,1274.256427,57.7443609,1244.688645
1.43507E+12,6.204819277,-0.192771084,7.722891566,1273.51676,57.7443609,1243.956044
1.43507E+12,6.180722892,-0.192771084,7.722891566,1274.256427,57.7443609,1242.490842
1.43507E+12,6.144578313,-0.192771084,7.734939759,1274.256427,57.7443609,1240.29304
1.43507E+12,6.108433735,-0.228915663,7.759036145,1273.51676,57.7443609,1238.095238
1.43507E+12,6.108433735,-0.240963855,7.771084337,1274.256427,57.7443609,1235.897436
1.43507E+12,6.120481928,-0.228915663,7.759036145,1273.51676,57.7443609,1235.164835
1.43507E+12,6.13253012,-0.204819277,7.734939759,1274.256427,57.7443609,1232.967033
1.43507E+12,6.144578313,-0.192771084,7.734939759,1274.256427,57.7443609,1233.699634
1.43507E+12,6.144578313,-0.192771084,7.734939759,1274.256427,57.7443609,1233.699634
1.43507E+12,6.156626506,-0.21686747,7.734939759,1274.256427,57.7443609,1235.164835
1.43507E+12,6.156626506,-0.228915663,7.746987952,1274.256427,57.7443609,1235.164835
1.43507E+12,6.13253012,-0.204819277,7.746987952,1274.256427,57.7443609,1232.234432
1.43507E+12,6.096385542,-0.204819277,7.746987952,1274.256427,57.7443609,1230.769231
1.43507E+12,6.13253012,-0.21686747,7.759036145,1274.256427,57.7443609,1232.234432
1.43507E+12,6.168674699,-0.204819277,7.734939759,1274.996953,57.7443609,1235.897436
1.43507E+12,6.192771084,-0.192771084,7.746987952,1274.256427,57.7443609,1242.490842
1.43507E+12,6.21686747,-0.192771084,7.734939759,1274.256427,57.7443609,1252.747253
1.43507E+12,6.192771084,-0.204819277,7.722891566,1274.996953,57.7443609,1268.864469
1.43507E+12,6.168674699,-0.21686747,7.734939759,1274.256427,57.7443609,1290.842491
1.43507E+12,6.156626506,-0.21686747,7.746987952,1274.256427,57.7443609,1320.879121
1.43507E+12,6.120481928,-0.21686747,7.759036145,1274.256427,57.7443609,1360.43956
1.43507E+12,6.108433735,-0.21686747,7.734939759,1274.256427,57.7443609,1405.860806
1.43507E+12,6.108433735,-0.21686747,7.759036145,1274.996953,57.7443609,1455.677656
1.43507E+12,6.13253012,-0.21686747,7.759036145,1274.256427,57.7443609,1509.89011
1.43507E+12,6.156626506,-0.228915663,7.746987952,1274.256427,57.7443609,1565.567766
1.43507E+12,6.156626506,-0.204819277,7.722891566,1274.256427,57.7443609,1623.443223
1.43507E+12,6.13253012,-0.21686747,7.722891566,1274.256427,57.7443609,1678.388278
1.43507E+12,6.13253012,-0.204819277,7.746987952,1274.256427,57.7443609,1730.40293
1.43507E+12,6.180722892,-0.204819277,7.759036145,1274.256427,57.7443609,1776.556777
1.43507E+12,6.180722892,-0.21686747,7.746987952,1274.256427,57.7443609,1818.315018
1.43507E+12,6.144578313,-0.192771084,7.746987952,1274.256427,57.7443609,1852.014652
1.43507E+12,6.13253012,-0.192771084,7.746987952,1274.996953,57.7443609,1875.457875
1.43507E+12,6.120481928,-0.21686747,7.746987952,1274.996953,57.7443609,1891.575092
1.43507E+12,6.156626506,-0.228915663,7.746987952,1274.996953,57.7443609,1902.564103
1.43507E+12,6.120481928,-0.228915663,7.734939759,1274.256427,57.7443609,1906.227106
1.43507E+12,6.13253012,-0.228915663,7.734939759,1274.256427,57.7443609,1906.959707
1.43507E+12,6.108433735,-0.21686747,7.771084337,1274.256427,60.47244094,1901.098901
1.43507E+12,6.144578313,-0.21686747,7.759036145,1274.996953,60.47244094,1892.307692
1.43507E+12,6.204819277,-0.204819277,7.771084337,1274.996953,60.47244094,1879.85348
1.43507E+12,6.204819277,-0.192771084,7.759036145,1274.256427,60.47244094,1862.271062
1.43507E+12,6.156626506,-0.192771084,7.746987952,1274.256427,60.47244094,1841.758242
1.43507E+12,6.120481928,-0.21686747,7.746987952,1274.256427,60.47244094,1821.245421
1.43507E+12,6.096385542,-0.204819277,7.746987952,1274.996953,60.47244094,1798.534799
1.43507E+12,6.096385542,-0.240963855,7.734939759,1274.256427,60.47244094,1777.289377
1.43507E+12,6.084337349,-0.240963855,7.734939759,1274.256427,60.47244094,1756.776557
1.43507E+12,6.096385542,-0.240963855,7.746987952,1274.256427,60.47244094,1734.798535
1.43507E+12,6.144578313,-0.228915663,7.759036145,1274.996953,60.47244094,1712.087912
1.43507E+12,6.168674699,-0.204819277,7.746987952,1274.996953,60.47244094,1694.505495
1.43507E+12,6.204819277,-0.21686747,7.746987952,1274.256427,60.47244094,1678.388278
1.43507E+12,6.192771084,-0.168674699,7.734939759,1274.996953,60.47244094,1667.399267
1.43507E+12,6.156626506,-0.180722892,7.734939759,1274.996953,60.47244094,1660.805861
1.43507E+12,6.144578313,-0.180722892,7.746987952,1274.256427,60.47244094,1657.142857
1.43507E+12,6.13253012,-0.204819277,7.746987952,1274.256427,60.47244094,1655.677656
1.43507E+12,6.144578313,-0.204819277,7.759036145,1274.996953,60.47244094,1657.142857
1.43507E+12,6.13253012,-0.228915663,7.746987952,1274.996953,60.47244094,1658.608059
1.43507E+12,6.096385542,-0.228915663,7.746987952,1274.996953,60.47244094,1660.07326
1.43507E+12,6.108433735,-0.228915663,7.734939759,1274.256427,60.47244094,1660.07326
1.43507E+12,6.13253012,-0.228915663,7.759036145,1274.996953,60.47244094,1660.805861
1.43507E+12,6.168674699,-0.21686747,7.746987952,1274.996953,60.47244094,1659.340659
1.43507E+12,6.168674699,-0.228915663,7.734939759,1274.256427,60.47244094,1654.945055
1.43507E+12,6.13253012,-0.204819277,7.759036145,1275.73834,60.47244094,1649.084249
1.43507E+12,6.13253012,-0.204819277,7.746987952,1275.73834,60.47244094,1636.630037
1.43507E+12,6.120481928,-0.228915663,7.746987952,1274.996953,60.47244094,1619.047619
1.43507E+12,6.13253012,-0.228915663,7.734939759,1274.996953,60.47244094,1599.267399
1.43507E+12,6.144578313,-0.21686747,7.746987952,1274.996953,60.47244094,1575.824176
1.43507E+12,6.13253012,-0.192771084,7.759036145,1275.73834,60.47244094,1550.18315
1.43507E+12,6.156626506,-0.21686747,7.746987952,1274.996953,60.47244094,1526.739927
1.43507E+12,6.168674699,-0.204819277,7.734939759,1274.996953,60.47244094,1503.296703
1.43507E+12,6.168674699,-0.21686747,7.759036145,1274.996953,60.47244094,1479.85348
1.43507E+12,6.144578313,-0.192771084,7.734939759,1274.256427,60.47244094,1459.340659
1.43507E+12,6.13253012,-0.204819277,7.746987952,1274.996953,60.47244094,1439.56044
1.43507E+12,6.13253012,-0.204819277,7.734939759,1274.996953,60.47244094,1423.443223
1.43507E+12,6.13253012,-0.228915663,7.746987952,1274.996953,60.47244094,1410.25641
1.43507E+12,6.144578313,-0.21686747,7.746987952,1274.996953,60.47244094,1396.336996
1.43507E+12,6.144578313,-0.228915663,7.746987952,1275.73834,60.47244094,1383.150183
1.43507E+12,6.13253012,-0.204819277,7.734939759,1274.996953,60.47244094,1372.161172
1.43507E+12,6.156626506,-0.21686747,7.734939759,1274.996953,60.47244094,1357.509158
1.43507E+12,6.156626506,-0.204819277,7.746987952,1274.996953,60.47244094,1344.322344
1.43507E+12,6.156626506,-0.204819277,7.746987952,1275.73834,60.47244094,1330.40293
1.43507E+12,6.144578313,-0.204819277,7.759036145,1274.996953,60.47244094,1319.413919
1.43507E+12,6.156626506,-0.21686747,7.734939759,1274.996953,60.47244094,1309.157509
1.43507E+12,6.144578313,-0.21686747,7.759036145,1275.73834,60.47244094,1301.098901
1.43507E+12,6.120481928,-0.192771084,7.746987952,1274.996953,60.47244094,1295.238095
1.43507E+12,6.120481928,-0.21686747,7.759036145,1274.996953,60.47244094,1288.644689
1.43507E+12,6.144578313,-0.204819277,7.722891566,1275.73834,60.47244094,1282.783883
1.43507E+12,6.168674699,-0.21686747,7.734939759,1275.73834,60.47244094,1280.586081
1.43507E+12,6.168674699,-0.21686747,7.722891566,1275.73834,60.47244094,1280.586081
1.43507E+12,6.144578313,-0.228915663,7.722891566,1274.996953,60.47244094,1280.586081
1.43507E+12,6.144578313,-0.21686747,7.746987952,1275.73834,60.47244094,1279.85348
1.43507E+12,6.120481928,-0.21686747,7.771084337,1275.73834,60.47244094,1276.923077
1.43507E+12,6.108433735,-0.204819277,7.771084337,1275.73834,60.47244094,1273.992674
1.43507E+12,6.144578313,-0.204819277,7.746987952,1275.73834,60.47244094,1271.062271
1.43507E+12,6.156626506,-0.192771084,7.734939759,1274.996953,60.47244094,1267.399267
1.43507E+12,6.180722892,-0.204819277,7.722891566,1276.48059,60.47244094,1264.468864
1.43507E+12,6.180722892,-0.21686747,7.734939759,1275.73834,60.47244094,1260.805861
1.43507E+12,6.168674699,-0.228915663,7.722891566,1274.996953,60.47244094,1259.340659
1.43507E+12,6.156626506,-0.21686747,7.746987952,1275.73834,60.47244094,1257.142857
1.43507E+12,6.13253012,-0.21686747,7.734939759,1274.996953,60.47244094,1257.142857
1.43507E+12,6.120481928,-0.204819277,7.746987952,1275.73834,60.47244094,1255.677656
1.43507E+12,6.13253012,-0.192771084,7.734939759,1275.73834,60.47244094,1255.677656
1.43507E+12,6.156626506,-0.21686747,7.746987952,1274.996953,60.47244094,1253.479853
1.43507E+12,6.168674699,-0.21686747,7.734939759,1275.73834,60.47244094,1250.549451
1.43507E+12,6.168674699,-0.204819277,7.722891566,1275.73834,60.47244094,1247.619048
1.43507E+12,6.144578313,-0.21686747,7.722891566,1275.73834,60.47244094,1245.421245
1.43507E+12,6.168674699,-0.21686747,7.722891566,1275.73834,60.47244094,1241.758242
1.43507E+12,6.144578313,-0.21686747,7.734939759,1275.73834,60.47244094,1237.362637
1.43507E+12,6.13253012,-0.21686747,7.734939759,1276.48059,60.47244094,1235.897436
1.43507E+12,6.13253012,-0.204819277,7.759036145,1275.73834,60.47244094,1235.897436
1.43507E+12,6.156626506,-0.228915663,7.759036145,1275.73834,60.47244094,1235.897436
1.43507E+12,6.144578313,-0.204819277,7.746987952,1276.48059,60.47244094,1238.095238
1.43507E+12,6.144578313,-0.21686747,7.722891566,1275.73834,60.47244094,1236.630037
1.43507E+12,6.156626506,-0.204819277,7.759036145,1275.73834,60.47244094,1237.362637
1.43507E+12,6.168674699,-0.228915663,7.722891566,1275.73834,60.47244094,1237.362637
1.43507E+12,6.156626506,-0.21686747,7.734939759,1275.73834,60.47244094,1238.095238
1.43507E+12,6.13253012,-0.21686747,7.746987952,1276.48059,60.47244094,1238.095238
1.43507E+12,6.13253012,-0.204819277,7.746987952,1276.48059,60.47244094,1236.630037
1.43507E+12,6.120481928,-0.21686747,7.746987952,1276.48059,60.47244094,1236.630037
1.43507E+12,6.144578313,-0.21686747,7.746987952,1276.48059,60.47244094,1233.699634
1.43507E+12,6.144578313,-0.204819277,7.746987952,1275.73834,60.47244094,1232.967033
1.43507E+12,6.144578313,-0.204819277,7.746987952,1276.48059,60.47244094,1230.03663
1.43507E+12,6.144578313,-0.192771084,7.746987952,1275.73834,60.47244094,1230.769231
1.43507E+12,6.156626506,-0.21686747,7.759036145,1275.73834,60.47244094,1231.501832
1.43507E+12,6.156626506,-0.192771084,7.746987952,1276.48059,60.47244094,1230.769231
1.43507E+12,6.144578313,-0.192771084,7.734939759,1276.48059,60.47244094,1230.769231
1.43507E+12,6.156626506,-0.21686747,7.722891566,1276.48059,60.47244094,1227.838828
1.43507E+12,6.168674699,-0.21686747,7.734939759,1276.48059,60.47244094,1227.106227
1.43507E+12,6.13253012,-0.240963855,7.746987952,1276.48059,60.47244094,1225.641026
1.43507E+12,6.144578313,-0.204819277,7.734939759,1276.48059,60.47244094,1224.908425
1.43507E+12,6.156626506,-0.21686747,7.746987952,1276.48059,60.47244094,1223.443223
1.43507E+12,6.144578313,-0.21686747,7.746987952,1276.48059,60.47244094,1221.245421
1.43507E+12,6.168674699,-0.192771084,7.734939759,1276.48059,60.47244094,1221.978022
1.43507E+12,6.168674699,-0.204819277,7.722891566,1275.73834,60.47244094,1223.443223
1.43507E+12,6.144578313,-0.204819277,7.734939759,1277.223704,60.47244094,1226.373626
1.43507E+12,6.144578313,-0.192771084,7.746987952,1276.48059,60.47244094,1230.769231
1.43507E+12,6.156626506,-0.228915663,7.746987952,1276.48059,60.47244094,1233.699634
1.43507E+12,6.120481928,-0.21686747,7.746987952,1276.48059,60.47244094,1234.432234
1.43507E+12,6.096385542,-0.228915663,7.759036145,1276.48059,60.47244094,1236.630037
1.43507E+12,6.13253012,-0.21686747,7.759036145,1276.48059,60.47244094,1239.56044
1.43507E+12,6.13253012,-0.204819277,7.759036145,1276.48059,60.47244094,1243.223443
1.43507E+12,6.168674699,-0.192771084,7.746987952,1276.48059,60.47244094,1246.153846
1.43507E+12,6.180722892,-0.180722892,7.734939759,1276.48059,60.47244094,1244.688645
1.43507E+12,6.192771084,-0.192771084,7.722891566,1276.48059,60.47244094,1238.827839
1.43507E+12,6.156626506,-0.21686747,7.734939759,1276.48059,60.47244094,1230.03663
1.43507E+12,6.144578313,-0.228915663,7.734939759,1276.48059,60.47244094,1219.78022
1.43507E+12,6.144578313,-0.240963855,7.734939759,1276.48059,60.47244094,1210.989011
1.43507E+12,6.144578313,-0.204819277,7.771084337,1277.223704,60.47244094,1202.930403
1.43507E+12,6.156626506,-0.204819277,7.746987952,1276.48059,60.47244094,1200
1.43507E+12,6.168674699,-0.192771084,7.734939759,1276.48059,60.47244094,1200
1.43507E+12,6.180722892,-0.21686747,7.734939759,1277.223704,60.47244094,1202.197802
1.43507E+12,6.192771084,-0.204819277,7.734939759,1276.48059,60.47244094,1215.384615
1.43507E+12,6.168674699,-0.204819277,7.722891566,1277.223704,60.47244094,1234.432234
1.43507E+12,6.144578313,-0.204819277,7.746987952,1276.48059,60.47244094,1263.003663
1.43507E+12,6.144578313,-0.228915663,7.759036145,1276.48059,60.47244094,1302.564103
1.43507E+12,6.144578313,-0.228915663,7.746987952,1277.223704,60.47244094,1350.915751
1.43507E+12,6.13253012,-0.21686747,7.746987952,1277.223704,60.47244094,1406.593407
1.43507E+12,6.120481928,-0.21686747,7.722891566,1277.223704,60.47244094,1471.062271
1.43507E+12,6.13253012,-0.240963855,7.734939759,1276.48059,60.47244094,1536.996337
1.43507E+12,6.168674699,-0.204819277,7.734939759,1276.48059,60.47244094,1602.197802
1.43507E+12,6.180722892,-0.204819277,7.734939759,1277.223704,60.47244094,1664.468864
1.43507E+12,6.168674699,-0.192771084,7.722891566,1276.48059,60.47244094,1720.879121
1.43507E+12,6.180722892,-0.21686747,7.734939759,1277.223704,60.47244094,1769.96337
1.43507E+12,6.192771084,-0.228915663,7.734939759,1277.223704,60.47244094,1812.454212
1.43507E+12,6.168674699,-0.21686747,7.734939759,1276.48059,60.47244094,1844.688645
1.43507E+12,6.156626506,-0.192771084,7.734939759,1276.48059,60.47244094,1868.131868
1.43507E+12,6.144578313,-0.204819277,7.734939759,1277.223704,60.47244094,1882.783883
1.43507E+12,6.156626506,-0.21686747,7.746987952,1277.223704,60.47244094,1890.10989
1.43507E+12,6.13253012,-0.228915663,7.746987952,1277.223704,60.47244094,1890.842491
1.43507E+12,6.13253012,-0.192771084,7.746987952,1277.223704,58.18181818,1887.179487
1.43507E+12,6.120481928,-0.228915663,7.746987952,1277.223704,58.18181818,1874.725275
1.43507E+12,6.120481928,-0.253012048,7.759036145,1277.223704,58.18181818,1857.142857
1.43507E+12,6.156626506,-0.21686747,7.759036145,1277.223704,58.18181818,1834.432234
1.43507E+12,6.156626506,-0.204819277,7.746987952,1276.48059,58.18181818,1811.721612
1.43507E+12,6.144578313,-0.204819277,7.734939759,1276.48059,58.18181818,1784.615385
1.43507E+12,6.120481928,-0.192771084,7.746987952,1276.48059,58.18181818,1757.509158
1.43507E+12,6.096385542,-0.204819277,7.746987952,1277.223704,58.18181818,1731.135531
1.43507E+12,6.096385542,-0.228915663,7.746987952,1276.48059,58.18181818,1704.029304
1.43507E+12,6.108433735,-0.240963855,7.759036145,1277.223704,58.18181818,1676.190476
1.43507E+12,6.156626506,-0.21686747,7.746987952,1276.48059,58.18181818,1652.747253
1.43507E+12,6.168674699,-0.204819277,7.734939759,1277.223704,58.18181818,1630.769231
1.43507E+12,6.180722892,-0.192771084,7.722891566,1276.48059,58.18181818,1613.186813
1.43507E+12,6.192771084,-0.192771084,7.722891566,1277.223704,58.18181818,1599.267399
1.43507E+12,6.192771084,-0.192771084,7.722891566,1277.223704,58.18181818,1589.74359
1.43507E+12,6.180722892,-0.192771084,7.734939759,1276.48059,58.18181818,1583.882784
1.43507E+12,6.156626506,-0.192771084,7.734939759,1277.223704,58.18181818,1582.417582
1.43507E+12,6.144578313,-0.204819277,7.722891566,1277.223704,58.18181818,1586.813187
1.43507E+12,6.108433735,-0.192771084,7.746987952,1277.223704,58.18181818,1593.406593
1.43507E+12,6.108433735,-0.21686747,7.746987952,1277.223704,58.18181818,1602.930403
1.43507E+12,6.13253012,-0.21686747,7.759036145,1277.223704,58.18181818,1612.454212
1.43507E+12,6.13253012,-0.21686747,7.759036145,1277.967684,58.18181818,1619.78022
1.43507E+12,6.13253012,-0.240963855,7.734939759,1277.223704,58.18181818,1625.641026
1.43507E+12,6.13253012,-0.21686747,7.734939759,1277.223704,58.18181818,1627.838828
1.43507E+12,6.144578313,-0.228915663,7.746987952,1277.223704,58.18181818,1627.838828
1.43507E+12,6.156626506,-0.228915663,7.746987952,1277.223704,58.18181818,1624.175824
1.43507E+12,6.144578313,-0.21686747,7.722891566,1277.967684,58.18181818,1616.849817
1.43507E+12,6.168674699,-0.204819277,7.722891566,1277.967684,58.18181818,1608.791209
1.43507E+12,6.156626506,-0.204819277,7.746987952,1277.223704,58.18181818,1596.336996
1.43507E+12,6.168674699,-0.204819277,7.734939759,1277.223704,58.18181818,1582.417582
1.43507E+12,6.168674699,-0.228915663,7.734939759,1277.223704,58.18181818,1566.300366
1.43507E+12,6.144578313,-0.204819277,7.734939759,1277.223704,58.18181818,1548.717949
1.43507E+12,6.180722892,-0.204819277,7.722891566,1277.967684,58.18181818,1528.205128
1.43507E+12,6.168674699,-0.228915663,7.734939759,1277.967684,58.18181818,1506.227106
1.43507E+12,6.180722892,-0.204819277,7.734939759,1277.967684,58.18181818,1484.249084
1.43507E+12,6.168674699,-0.204819277,7.734939759,1277.223704,58.18181818,1459.340659
1.43507E+12,6.156626506,-0.21686747,7.722891566,1277.223704,58.18181818,1434.432234
1.43507E+12,6.120481928,-0.21686747,7.722891566,1277.223704,58.18181818,1411.721612
1.43507E+12,6.120481928,-0.192771084,7.734939759,1277.223704,58.18181818,1389.010989
1.43507E+12,6.120481928,-0.21686747,7.746987952,1277.967684,58.18181818,1369.230769
1.43507E+12,6.144578313,-0.21686747,7.746987952,1277.223704,58.18181818,1350.915751
1.43507E+12,6.168674699,-0.228915663,7.722891566,1277.967684,58.18181818,1335.531136
1.43507E+12,6.180722892,-0.21686747,7.722891566,1277.967684,58.18181818,1320.14652
1.43507E+12,6.168674699,-0.228915663,7.734939759,1277.223704,58.18181818,1306.959707
1.43507E+12,6.168674699,-0.204819277,7.734939759,1277.967684,58.18181818,1295.970696
1.43507E+12,6.156626506,-0.228915663,7.746987952,1277.967684,58.18181818,1287.179487
1.43507E+12,6.168674699,-0.21686747,7.734939759,1277.967684,58.18181818,1280.586081
1.43507E+12,6.156626506,-0.21686747,7.734939759,1277.967684,58.18181818,1274.725275
1.43507E+12,6.144578313,-0.204819277,7.746987952,1277.223704,58.18181818,1271.062271
1.43507E+12,6.156626506,-0.228915663,7.734939759,1277.967684,58.18181818,1265.934066
1.43507E+12,6.144578313,-0.21686747,7.734939759,1277.967684,58.18181818,1260.07326
1.43507E+12,6.156626506,-0.204819277,7.746987952,1277.967684,58.18181818,1255.677656
1.43507E+12,6.168674699,-0.21686747,7.722891566,1277.967684,58.18181818,1249.81685
1.43507E+12,6.144578313,-0.204819277,7.734939759,1277.967684,58.18181818,1243.956044
1.43507E+12,6.156626506,-0.21686747,7.734939759,1277.967684,58.18181818,1243.223443
1.43507E+12,6.168674699,-0.204819277,7.722891566,1277.967684,58.18181818,1241.025641
1.43507E+12,6.144578313,-0.21686747,7.722891566,1277.223704,58.18181818,1238.827839
1.43507E+12,6.144578313,-0.21686747,7.734939759,1277.967684,58.18181818,1236.630037
1.43507E+12,6.13253012,-0.21686747,7.734939759,1277.223704,58.18181818,1234.432234
1.43507E+12,6.13253012,-0.204819277,7.759036145,1277.967684,58.18181818,1230.769231
1.43507E+12,6.156626506,-0.204819277,7.734939759,1277.967684,58.18181818,1230.03663
1.43507E+12,6.168674699,-0.21686747,7.734939759,1277.967684,58.18181818,1227.838828
1.43507E+12,6.156626506,-0.228915663,7.759036145,1278.712531,58.18181818,1227.838828
1.43507E+12,6.156626506,-0.21686747,7.746987952,1277.967684,58.18181818,1232.234432
1.43507E+12,6.156626506,-0.21686747,7.746987952,1277.967684,58.18181818,1235.897436
1.43507E+12,6.144578313,-0.21686747,7.746987952,1278.712531,58.18181818,1239.56044
1.43507E+12,6.156626506,-0.228915663,7.734939759,1277.967684,58.18181818,1241.758242
1.43507E+12,6.13253012,-0.228915663,7.746987952,1277.967684,58.18181818,1243.956044
1.43507E+12,6.144578313,-0.204819277,7.746987952,1277.967684,58.18181818,1246.886447
1.43507E+12,6.144578313,-0.228915663,7.734939759,1277.967684,58.18181818,1246.886447
1.43507E+12,6.168674699,-0.21686747,7.722891566,1278.712531,58.18181818,1249.81685
1.43507E+12,6.180722892,-0.204819277,7.746987952,1277.967684,58.18181818,1254.212454
1.43507E+12,6.168674699,-0.204819277,7.734939759,1277.967684,58.18181818,1257.875458
1.43507E+12,6.156626506,-0.228915663,7.722891566,1278.712531,58.18181818,1262.271062
1.43507E+12,6.13253012,-0.21686747,7.734939759,1278.712531,58.18181818,1264.468864
1.43507E+12,6.144578313,-0.204819277,7.734939759,1278.712531,58.18181818,1265.934066
1.43507E+12,6.13253012,-0.204819277,7.746987952,1277.967684,58.18181818,1266.666667
1.43507E+12,6.144578313,-0.21686747,7.746987952,1277.967684,58.18181818,1263.736264
1.43507E+12,6.156626506,-0.21686747,7.746987952,1277.967684,58.18181818,1258.608059
1.43507E+12,6.156626506,-0.21686747,7.734939759,1278.712531,58.18181818,1254.212454
1.43507E+12,6.168674699,-0.204819277,7.722891566,1278.712531,58.18181818,1249.81685
1.43507E+12,6.168674699,-0.21686747,7.722891566,1278.712531,58.18181818,1246.886447
1.43507E+12,6.156626506,-0.21686747,7.734939759,1278.712531,58.18181818,1245.421245
1.43507E+12,6.168674699,-0.228915663,7.722891566,1278.712531,58.18181818,1243.956044
1.43507E+12,6.156626506,-0.228915663,7.746987952,1277.967684,58.18181818,1243.223443
1.43507E+12,6.144578313,-0.253012048,7.746987952,1278.712531,58.18181818,1238.827839
1.43507E+12,6.13253012,-0.228915663,7.746987952,1278.712531,58.18181818,1235.164835
1.43507E+12,6.144578313,-0.192771084,7.734939759,1278.712531,58.18181818,1231.501832
1.43507E+12,6.156626506,-0.204819277,7.734939759,1278.712531,58.18181818,1230.03663
1.43507E+12,6.180722892,-0.204819277,7.698795181,1278.712531,58.18181818,1228.571429
1.43507E+12,6.156626506,-0.21686747,7.746987952,1278.712531,58.18181818,1226.373626
1.43507E+12,6.156626506,-0.228915663,7.746987952,1278.712531,58.18181818,1224.175824
1.43507E+12,6.13253012,-0.228915663,7.759036145,1277.967684,58.18181818,1222.710623
1.43507E+12,6.120481928,-0.21686747,7.771084337,1278.712531,58.18181818,1221.245421
1.43507E+12,6.13253012,-0.228915663,7.746987952,1278.712531,58.18181818,1219.047619
1.43507E+12,6.156626506,-0.21686747,7.734939759,1278.712531,58.18181818,1217.582418
1.43507E+12,6.180722892,-0.21686747,7.734939759,1277.967684,58.18181818,1217.582418
1.43507E+12,6.192771084,-0.21686747,7.722891566,1277.967684,58.18181818,1215.384615
1.43507E+12,6.192771084,-0.192771084,7.710843373,1278.712531,58.18181818,1216.849817
1.43507E+12,6.168674699,-0.21686747,7.734939759,1278.712531,58.18181818,1215.384615
1.43507E+12,6.144578313,-0.21686747,7.722891566,1277.967684,58.18181818,1216.849817
1.43507E+12,6.13253012,-0.228915663,7.734939759,1278.712531,58.18181818,1219.047619
1.43507E+12,6.13253012,-0.228915663,7.734939759,1277.967684,58.18181818,1223.443223
1.43507E+12,6.144578313,-0.204819277,7.746987952,1279.458247,58.18181818,1232.967033
1.43507E+12,6.156626506,-0.204819277,7.746987952,1278.712531,58.18181818,1243.223443
1.43507E+12,6.156626506,-0.204819277,7.734939759,1278.712531,58.18181818,1253.479853
1.43507E+12,6.144578313,-0.204819277,7.734939759,1278.712531,58.18181818,1268.131868
1.43507E+12,6.156626506,-0.192771084,7.746987952,1277.967684,58.18181818,1283.516484
1.43507E+12,6.168674699,-0.204819277,7.722891566,1278.712531,58.18181818,1304.761905
1.43507E+12,6.156626506,-0.21686747,7.746987952,1279.458247,58.18181818,1330.40293
1.43507E+12,6.156626506,-0.204819277,7.746987952,1279.458247,58.18181818,1361.904762
1.43507E+12,6.13253012,-0.240963855,7.746987952,1279.458247,58.18181818,1400.732601
1.43507E+12,6.13253012,-0.21686747,7.734939759,1278.712531,58.18181818,1445.421245
1.43507E+12,6.144578313,-0.228915663,7.734939759,1279.458247,58.18181818,1493.772894
1.43507E+12,6.168674699,-0.21686747,7.734939759,1278.712531,58.18181818,1542.124542
1.43507E+12,6.180722892,-0.204819277,7.734939759,1278.712531,58.18181818,1590.47619
1.43507E+12,6.180722892,-0.21686747,7.746987952,1279.458247,58.18181818,1637.362637
1.43507E+12,6.180722892,-0.204819277,7.722891566,1278.712531,58.18181818,1679.120879
1.43507E+12,6.156626506,-0.192771084,7.746987952,1279.458247,58.18181818,1716.483516
1.43507E+12,6.168674699,-0.21686747,7.746987952,1279.458247,58.18181818,1744.322344
1.43507E+12,6.168674699,-0.192771084,7.710843373,1278.712531,58.18181818,1764.835165
1.43507E+12,6.156626506,-0.21686747,7.734939759,1279.458247,58.18181818,1778.754579
1.43507E+12,6.144578313,-0.21686747,7.722891566,1278.712531,58.18181818,1786.813187
1.43507E+12,6.13253012,-0.21686747,7.759036145,1279.458247,58.6259542,1786.813187
1.43507E+12,6.144578313,-0.21686747,7.734939759,1278.712531,58.6259542,1780.952381
1.43507E+12,6.13253012,-0.253012048,7.746987952,1278.712531,58.6259542,1769.96337
1.43507E+12,6.144578313,-0.240963855,7.746987952,1279.458247,58.6259542,1754.578755
1.43507E+12,6.156626506,-0.228915663,7.746987952,1278.712531,58.6259542,1735.531136
1.43507E+12,6.156626506,-0.180722892,7.734939759,1278.712531,58.6259542,1715.018315
1.43507E+12,6.168674699,-0.21686747,7.710843373,1279.458247,58.6259542,1691.575092
1.43507E+12,6.13253012,-0.21686747,7.734939759,1278.712531,58.6259542,1667.399267
1.43507E+12,6.13253012,-0.21686747,7.734939759,1279.458247,58.6259542,1641.758242
1.43507E+12,6.120481928,-0.228915663,7.746987952,1278.712531,58.6259542,1616.117216
1.43507E+12,6.096385542,-0.228915663,7.759036145,1278.712531,58.6259542,1589.74359
1.43507E+12,6.108433735,-0.21686747,7.759036145,1279.458247,58.6259542,1566.300366
1.43507E+12,6.13253012,-0.21686747,7.734939759,1279.458247,58.6259542,1548.717949
1.43507E+12,6.144578313,-0.204819277,7.746987952,1278.712531,58.6259542,1535.531136
1.43507E+12,6.192771084,-0.192771084,7.722891566,1279.458247,58.6259542,1523.809524
1.43507E+12,6.21686747,-0.192771084,7.734939759,1279.458247,58.6259542,1517.948718
1.43507E+12,6.192771084,-0.192771084,7.746987952,1279.458247,58.6259542,1514.285714
1.43507E+12,6.180722892,-0.192771084,7.734939759,1278.712531,58.6259542,1512.087912
1.43507E+12,6.156626506,-0.204819277,7.746987952,1279.458247,58.6259542,1512.820513
1.43507E+12,6.168674699,-0.228915663,7.771084337,1278.712531,58.6259542,1515.018315
1.43507E+12,6.120481928,-0.228915663,7.759036145,1279.458247,58.6259542,1517.948718
1.43507E+12,6.108433735,-0.228915663,7.746987952,1279.458247,58.6259542,1525.274725
1.43507E+12,6.120481928,-0.253012048,7.746987952,1279.458247,58.6259542,1531.868132
1.43507E+12,6.096385542,-0.228915663,7.722891566,1279.458247,58.6259542,1536.996337
1.43507E+12,6.120481928,-0.228915663,7.734939759,1279.458247,58.6259542,1539.92674
1.43507E+12,6.156626506,-0.21686747,7.746987952,1278.712531,58.6259542,1540.659341
1.43507E+12,6.156626506,-0.228915663,7.722891566,1279.458247,58.6259542,1538.461538
1.43507E+12,6.156626506,-0.21686747,7.722891566,1279.458247,58.6259542,1535.531136
1.43507E+12,6.156626506,-0.228915663,7.722891566,1279.458247,58.6259542,1528.205128
1.43507E+12,6.144578313,-0.21686747,7.734939759,1279.458247,58.6259542,1520.879121
1.43507E+12,6.144578313,-0.228915663,7.771084337,1279.458247,58.6259542,1509.89011
1.43507E+12,6.168674699,-0.240963855,7.722891566,1279.458247,58.6259542,1496.703297
1.43507E+12,6.156626506,-0.240963855,7.734939759,1278.712531,58.6259542,1483.516484
1.43507E+12,6.144578313,-0.21686747,7.734939759,1278.712531,58.6259542,1467.399267
1.43507E+12,6.13253012,-0.240963855,7.734939759,1279.458247,58.6259542,1453.479853
1.43507E+12,6.144578313,-0.228915663,7.746987952,1280.204833,58.6259542,1435.897436
1.43507E+12,6.156626506,-0.21686747,7.746987952,1280.204833,58.6259542,1417.582418
1.43507E+12,6.156626506,-0.228915663,7.746987952,1279.458247,58.6259542,1399.267399
1.43507E+12,6.144578313,-0.228915663,7.734939759,1279.458247,58.6259542,1380.21978
1.43507E+12,6.156626506,-0.253012048,7.722891566,1279.458247,58.6259542,1362.637363
1.43507E+12,6.13253012,-0.228915663,7.746987952,1279.458247,58.6259542,1345.054945
1.43507E+12,6.156626506,-0.228915663,7.746987952,1279.458247,58.6259542,1331.135531
1.43507E+12,6.156626506,-0.228915663,7.722891566,1279.458247,58.6259542,1320.14652
1.43507E+12,6.156626506,-0.21686747,7.746987952,1279.458247,58.6259542,1315.018315
1.43507E+12,6.144578313,-0.21686747,7.746987952,1279.458247,58.6259542,1309.89011
1.43507E+12,6.144578313,-0.21686747,7.746987952,1279.458247,58.6259542,1306.227106
1.43507E+12,6.144578313,-0.21686747,7.734939759,1279.458247,58.6259542,1305.494505
1.43507E+12,6.156626506,-0.204819277,7.746987952,1279.458247,58.6259542,1304.029304
1.43507E+12,6.144578313,-0.21686747,7.722891566,1279.458247,58.6259542,1301.831502
1.43507E+12,6.13253012,-0.228915663,7.734939759,1279.458247,58.6259542,1301.831502
1.43507E+12,6.144578313,-0.21686747,7.746987952,1280.204833,58.6259542,1298.901099
1.43507E+12,6.156626506,-0.204819277,7.746987952,1278.712531,58.6259542,1296.703297
1.43507E+12,6.156626506,-0.228915663,7.746987952,1280.204833,58.6259542,1291.575092
1.43507E+12,6.156626506,-0.21686747,7.746987952,1279.458247,58.6259542,1286.446886
1.43507E+12,6.120481928,-0.204819277,7.734939759,1280.204833,58.6259542,1279.85348
1.43507E+12,6.13253012,-0.21686747,7.734939759,1280.204833,58.6259542,1273.260073
1.43507E+12,6.120481928,-0.21686747,7.746987952,1279.458247,58.6259542,1268.864469
1.43507E+12,6.144578313,-0.21686747,7.759036145,1279.458247,58.6259542,1265.201465
1.43507E+12,6.13253012,-0.21686747,7.734939759,1279.458247,58.6259542,1261.538462
1.43507E+12,6.13253012,-0.204819277,7.746987952,1280.204833,58.6259542,1260.805861
1.43507E+12,6.13253012,-0.228915663,7.734939759,1279.458247,58.6259542,1262.271062
1.43507E+12,6.13253012,-0.204819277,7.746987952,1279.458247,58.6259542,1262.271062
1.43507E+12,6.144578313,-0.21686747,7.734939759,1280.204833,58.6259542,1262.271062
1.43507E+12,6.144578313,-0.21686747,7.722891566,1279.458247,58.6259542,1259.340659
1.43507E+12,6.144578313,-0.21686747,7.746987952,1280.204833,58.6259542,1256.410256
1.43507E+12,6.120481928,-0.204819277,7.734939759,1279.458247,58.6259542,1253.479853
1.43507E+12,6.108433735,-0.21686747,7.746987952,1279.458247,58.6259542,1247.619048
1.43507E+12,6.108433735,-0.21686747,7.759036145,1280.204833,58.6259542,1241.025641
1.43507E+12,6.13253012,-0.228915663,7.746987952,1280.204833,58.6259542,1235.897436
1.43507E+12,6.144578313,-0.228915663,7.759036145,1279.458247,58.6259542,1230.03663
1.43507E+12,6.13253012,-0.228915663,7.734939759,1279.458247,58.6259542,1225.641026
1.43507E+12,6.13253012,-0.21686747,7.734939759,1280.204833,58.6259542,1224.908425
1.43507E+12,6.13253012,-0.228915663,7.759036145,1280.204833,58.6259542,1224.908425
1.43507E+12,6.13253012,-0.204819277,7.746987952,1279.458247,58.6259542,1226.373626
1.43507E+12,6.144578313,-0.228915663,7.746987952,1280.204833,58.6259542,1227.838828
1.43507E+12,6.120481928,-0.204819277,7.746987952,1280.204833,58.6259542,1231.501832
1.43507E+12,6.120481928,-0.228915663,7.746987952,1280.204833,58.6259542,1238.827839
1.43507E+12,6.144578313,-0.228915663,7.746987952,1280.204833,58.6259542,1243.956044
1.43507E+12,6.144578313,-0.21686747,7.746987952,1280.204833,58.6259542,1251.282051
1.43507E+12,6.13253012,-0.204819277,7.759036145,1280.204833,58.6259542,1257.875458
1.43507E+12,6.156626506,-0.21686747,7.746987952,1280.952291,58.6259542,1264.468864
1.43507E+12,6.13253012,-0.21686747,7.746987952,1280.204833,58.6259542,1273.260073
1.43507E+12,6.144578313,-0.228915663,7.746987952,1280.204833,58.6259542,1279.120879
1.43507E+12,6.13253012,-0.21686747,7.746987952,1280.204833,58.6259542,1282.783883
1.43507E+12,6.13253012,-0.240963855,7.746987952,1279.458247,58.6259542,1284.249084
1.43507E+12,6.156626506,-0.21686747,7.746987952,1280.204833,58.6259542,1284.249084
1.43507E+12,6.144578313,-0.21686747,7.734939759,1280.204833,58.6259542,1279.85348
1.43507E+12,6.120481928,-0.228915663,7.722891566,1280.204833,58.6259542,1275.457875
1.43507E+12,6.108433735,-0.21686747,7.734939759,1280.204833,58.6259542,1270.32967
1.43507E+12,6.108433735,-0.21686747,7.759036145,1280.204833,58.6259542,1266.666667
1.43507E+12,6.108433735,-0.228915663,7.759036145,1280.952291,58.6259542,1261.538462
1.43507E+12,6.13253012,-0.240963855,7.771084337,1280.204833,58.6259542,1252.747253
1.43507E+12,6.144578313,-0.240963855,7.759036145,1280.204833,58.6259542,1241.758242
1.43507E+12,6.156626506,-0.204819277,7.759036145,1280.204833,58.6259542,1229.304029
1.43507E+12,6.144578313,-0.204819277,7.746987952,1280.204833,58.6259542,1219.047619
1.43507E+12,6.156626506,-0.21686747,7.759036145,1280.204833,58.6259542,1212.454212
1.43507E+12,6.120481928,-0.228915663,7.759036145,1280.204833,58.6259542,1207.326007
1.43507E+12,6.13253012,-0.228915663,7.759036145,1280.204833,58.6259542,1205.128205
1.43507E+12,6.108433735,-0.21686747,7.759036145,1280.204833,58.6259542,1205.860806
1.43507E+12,6.120481928,-0.21686747,7.746987952,1280.204833,58.6259542,1205.860806
1.43507E+12,6.144578313,-0.204819277,7.734939759,1280.204833,58.6259542,1209.52381
1.43507E+12,6.180722892,-0.204819277,7.746987952,1280.204833,58.6259542,1216.117216
1.43507E+12,6.156626506,-0.228915663,7.734939759,1280.204833,58.6259542,1227.106227
1.43507E+12,6.180722892,-0.204819277,7.746987952,1280.204833,58.6259542,1247.619048
1.43507E+12,6.168674699,-0.204819277,7.746987952,1280.952291,58.6259542,1275.457875
1.43507E+12,6.156626506,-0.21686747,7.746987952,1280.204833,58.6259542,1313.553114
1.43507E+12,6.13253012,-0.240963855,7.746987952,1280.952291,58.6259542,1360.43956
1.43507E+12,6.108433735,-0.21686747,7.746987952,1280.204833,58.6259542,1416.849817
1.43507E+12,6.108433735,-0.240963855,7.746987952,1280.204833,58.6259542,1482.051282
1.43507E+12,6.144578313,-0.240963855,7.722891566,1280.204833,58.6259542,1550.18315
1.43507E+12,6.144578313,-0.253012048,7.746987952,1280.952291,58.6259542,1626.373626
1.43507E+12,6.144578313,-0.253012048,7.771084337,1280.952291,58.6259542,1701.831502
1.43507E+12,6.156626506,-0.21686747,7.746987952,1280.204833,58.6259542,1774.358974
1.43507E+12,6.156626506,-0.21686747,7.759036145,1280.204833,58.6259542,1842.490842
1.43507E+12,6.168674699,-0.204819277,7.746987952,1280.204833,58.6259542,1900.3663
1.43507E+12,6.168674699,-0.21686747,7.722891566,1280.952291,58.6259542,1947.252747
1.43507E+12,6.156626506,-0.204819277,7.734939759,1280.952291,58.6259542,1983.882784
1.43507E+12,6.13253012,-0.228915663,7.746987952,1279.458247,58.6259542,2009.52381
1.43507E+12,6.13253012,-0.204819277,7.746987952,1280.204833,58.6259542,2021.245421
1.43507E+12,6.156626506,-0.21686747,7.746987952,1280.952291,58.6259542,2022.710623
1.43507E+12,6.13253012,-0.228915663,7.759036145,1280.952291,62.43902439,2015.384615
1.43507E+12,6.108433735,-0.21686747,7.746987952,1280.204833,62.43902439,2003.663004
1.43507E+12,6.108433735,-0.228915663,7.746987952,1280.204833,62.43902439,1986.813187
1.43507E+12,6.13253012,-0.204819277,7.734939759,1280.204833,62.43902439,1967.765568
1.43507E+12,6.13253012,-0.240963855,7.746987952,1280.204833,62.43902439,1945.054945
1.43507E+12,6.156626506,-0.21686747,7.734939759,1280.204833,62.43902439,1922.344322
1.43507E+12,6.13253012,-0.228915663,7.746987952,1280.204833,62.43902439,1896.703297
1.43507E+12,6.120481928,-0.204819277,7.759036145,1280.204833,62.43902439,1868.131868
1.43507E+12,6.120481928,-0.228915663,7.759036145,1279.458247,62.43902439,1841.025641
1.43507E+12,6.108433735,-0.228915663,7.771084337,1280.204833,62.43902439,1809.52381
1.43507E+12,6.096385542,-0.240963855,7.771084337,1280.204833,62.43902439,1780.21978
1.43507E+12,6.108433735,-0.240963855,7.759036145,1280.204833,62.43902439,1752.380952
1.43507E+12,6.120481928,-0.240963855,7.771084337,1280.204833,62.43902439,1726.739927
1.43507E+12,6.13253012,-0.228915663,7.759036145,1280.204833,62.43902439,1702.564103
1.43507E+12,6.156626506,-0.228915663,7.722891566,1280.204833,62.43902439,1682.783883
1.43507E+12,6.180722892,-0.21686747,7.746987952,1280.204833,62.43902439,1666.666667
1.43507E+12,6.168674699,-0.192771084,7.734939759,1280.204833,62.43902439,1655.677656
1.43507E+12,6.180722892,-0.204819277,7.746987952,1280.204833,62.43902439,1649.084249
1.43507E+12,6.168674699,-0.204819277,7.746987952,1280.204833,62.43902439,1646.153846
1.43507E+12,6.13253012,-0.21686747,7.734939759,1280.204833,62.43902439,1647.619048
1.43507E+12,6.120481928,-0.21686747,7.746987952,1280.204833,62.43902439,1648.351648
1.43507E+12,6.084337349,-0.21686747,7.759036145,1280.204833,62.43902439,1649.81685
1.43507E+12,6.096385542,-0.21686747,7.759036145,1280.204833,62.43902439,1651.282051
1.43507E+12,6.096385542,-0.240963855,7.759036145,1280.204833,62.43902439,1649.81685
1.43507E+12,6.108433735,-0.265060241,7.746987952,1279.458247,62.43902439,1649.084249
1.43507E+12,6.120481928,-0.228915663,7.759036145,1280.204833,62.43902439,1644.688645
1.43507E+12,6.13253012,-0.240963855,7.746987952,1280.204833,62.43902439,1638.827839
1.43507E+12,6.13253012,-0.240963855,7.746987952,1280.952291,62.43902439,1633.699634
1.43507E+12,6.144578313,-0.21686747,7.746987952,1280.204833,62.43902439,1624.908425
1.43507E+12,6.144578313,-0.21686747,7.746987952,1280.204833,62.43902439,1612.454212
1.43507E+12,6.156626506,-0.228915663,7.771084337,1280.952291,62.43902439,1599.267399
1.43507E+12,6.156626506,-0.228915663,7.759036145,1280.204833,62.43902439,1584.615385
1.43507E+12,6.156626506,-0.21686747,7.746987952,1280.204833,62.43902439,1569.230769
1.43507E+12,6.156626506,-0.204819277,7.759036145,1280.204833,62.43902439,1551.648352
1.43507E+12,6.156626506,-0.21686747,7.746987952,1280.952291,62.43902439,1532.600733
1.43507E+12,6.156626506,-0.21686747,7.734939759,1280.204833,62.43902439,1513.553114
1.43507E+12,6.144578313,-0.21686747,7.734939759,1280.204833,62.43902439,1494.505495
1.43507E+12,6.13253012,-0.240963855,7.746987952,1280.204833,62.43902439,1476.190476
1.43507E+12,6.120481928,-0.21686747,7.746987952,1280.204833,62.43902439,1459.340659
1.43507E+12,6.120481928,-0.21686747,7.746987952,1280.204833,62.43902439,1443.956044
1.43507E+12,6.13253012,-0.228915663,7.759036145,1280.204833,62.43902439,1431.501832
1.43507E+12,6.13253012,-0.228915663,7.771084337,1280.204833,62.43902439,1418.315018
1.43507E+12,6.13253012,-0.21686747,7.734939759,1280.952291,62.43902439,1407.326007
1.43507E+12,6.156626506,-0.21686747,7.734939759,1280.204833,62.43902439,1398.534799
1.43507E+12,6.144578313,-0.21686747,7.734939759,1280.204833,62.43902439,1390.47619
1.43507E+12,6.144578313,-0.204819277,7.734939759,1280.204833,62.43902439,1383.150183
1.43507E+12,6.144578313,-0.240963855,7.734939759,1280.204833,62.43902439,1375.824176
1.43507E+12,6.144578313,-0.21686747,7.734939759,1280.204833,62.43902439,1369.96337
1.43507E+12,6.156626506,-0.204819277,7.771084337,1280.204833,62.43902439,1361.904762
1.43507E+12,6.144578313,-0.21686747,7.759036145,1280.204833,62.43902439,1353.113553
1.43507E+12,6.13253012,-0.204819277,7.746987952,1280.952291,62.43902439,1347.252747
1.43507E+12,6.144578313,-0.21686747,7.746987952,1280.204833,62.43902439,1340.659341
1.43507E+12,6.13253012,-0.228915663,7.746987952,1280.952291,62.43902439,1334.065934
1.43507E+12,6.13253012,-0.240963855,7.746987952,1280.204833,62.43902439,1329.67033
1.43507E+12,6.156626506,-0.240963855,7.734939759,1280.204833,62.43902439,1324.542125
1.43507E+12,6.120481928,-0.21686747,7.759036145,1280.204833,62.43902439,1319.413919
1.43507E+12,6.120481928,-0.240963855,7.746987952,1279.458247,62.43902439,1314.285714
1.43507E+12,6.120481928,-0.228915663,7.759036145,1280.204833,62.43902439,1307.692308
1.43507E+12,6.120481928,-0.21686747,7.746987952,1280.204833,62.43902439,1296.703297
1.43507E+12,6.13253012,-0.228915663,7.759036145,1280.204833,62.43902439,1284.981685
1.43507E+12,6.13253012,-0.228915663,7.759036145,1280.204833,62.43902439,1274.725275
1.43507E+12,6.144578313,-0.21686747,7.746987952,1280.204833,62.43902439,1265.934066
1.43507E+12,6.144578313,-0.21686747,7.746987952,1280.204833,62.43902439,1258.608059
1.43507E+12,6.13253012,-0.21686747,7.746987952,1280.952291,62.43902439,1252.747253
1.43507E+12,6.13253012,-0.204819277,7.746987952,1280.204833,62.43902439,1245.421245
1.43507E+12,6.144578313,-0.204819277,7.746987952,1280.204833,62.43902439,1240.29304
1.43507E+12,6.13253012,-0.192771084,7.759036145,1280.204833,62.43902439,1237.362637
1.43507E+12,6.13253012,-0.204819277,7.734939759,1280.204833,62.43902439,1235.897436
1.43507E+12,6.13253012,-0.21686747,7.746987952,1280.204833,62.43902439,1234.432234
1.43507E+12,6.13253012,-0.204819277,7.746987952,1280.204833,62.43902439,1235.164835
1.43507E+12,6.108433735,-0.21686747,7.746987952,1280.204833,62.43902439,1235.164835
1.43507E+12,6.156626506,-0.228915663,7.734939759,1279.458247,62.43902439,1236.630037
1.43507E+12,6.13253012,-0.228915663,7.746987952,1280.204833,62.43902439,1238.095238
1.43507E+12,6.108433735,-0.204819277,7.759036145,1280.204833,62.43902439,1240.29304
1.43507E+12,6.120481928,-0.228915663,7.746987952,1280.204833,62.43902439,1240.29304
1.43507E+12,6.13253012,-0.204819277,7.771084337,1280.952291,62.43902439,1241.025641
1.43507E+12,6.144578313,-0.240963855,7.734939759,1280.204833,62.43902439,1241.758242
1.43507E+12,6.120481928,-0.228915663,7.759036145,1280.204833,62.43902439,1241.758242
1.43507E+12,6.144578313,-0.228915663,7.734939759,1280.952291,62.43902439,1243.223443
1.43507E+12,6.120481928,-0.21686747,7.746987952,1280.204833,62.43902439,1243.956044
1.43507E+12,6.13253012,-0.228915663,7.746987952,1280.204833,62.43902439,1243.956044
1.43507E+12,6.120481928,-0.21686747,7.746987952,1280.204833,62.43902439,1243.956044
1.43507E+12,6.144578313,-0.228915663,7.746987952,1280.204833,62.43902439,1241.758242
1.43507E+12,6.13253012,-0.204819277,7.759036145,1280.952291,62.43902439,1241.025641
1.43507E+12,6.13253012,-0.240963855,7.746987952,1280.204833,62.43902439,1240.29304
1.43507E+12,6.144578313,-0.228915663,7.746987952,1280.204833,62.43902439,1238.095238
1.43507E+12,6.13253012,-0.240963855,7.746987952,1280.952291,62.43902439,1237.362637
1.43507E+12,6.144578313,-0.204819277,7.759036145,1279.458247,62.43902439,1237.362637
1.43507E+12,6.13253012,-0.204819277,7.734939759,1280.204833,62.43902439,1237.362637
1.43507E+12,6.168674699,-0.204819277,7.722891566,1280.204833,62.43902439,1239.56044
1.43507E+12,6.144578313,-0.204819277,7.759036145,1280.204833,62.43902439,1238.095238
1.43507E+12,6.120481928,-0.228915663,7.759036145,1280.204833,62.43902439,1235.897436
1.43507E+12,6.108433735,-0.21686747,7.759036145,1279.458247,62.43902439,1232.967033
1.43507E+12,6.108433735,-0.240963855,7.759036145,1280.204833,62.43902439,1227.838828
1.43507E+12,6.120481928,-0.240963855,7.759036145,1280.204833,62.43902439,1224.908425
1.43507E+12,6.156626506,-0.228915663,7.771084337,1280.204833,62.43902439,1219.047619
1.43507E+12,6.144578313,-0.204819277,7.746987952,1280.204833,62.43902439,1213.186813
1.43507E+12,6.144578313,-0.204819277,7.759036145,1279.458247,62.43902439,1206.593407
1.43507E+12,6.144578313,-0.21686747,7.746987952,1280.204833,62.43902439,1202.930403
1.43507E+12,6.120481928,-0.21686747,7.746987952,1279.458247,62.43902439,1205.128205
1.43507E+12,6.120481928,-0.228915663,7.759036145,1280.204833,62.43902439,1208.058608
1.43507E+12,6.120481928,-0.21686747,7.746987952,1280.204833,62.43902439,1213.919414
1.43507E+12,6.144578313,-0.228915663,7.746987952,1280.204833,62.43902439,1223.443223
1.43507E+12,6.156626506,-0.192771084,7.746987952,1280.204833,62.43902439,1235.897436
1.43507E+12,6.156626506,-0.192771084,7.734939759,1280.204833,62.43902439,1254.212454
1.43507E+12,6.180722892,-0.192771084,7.722891566,1280.204833,62.43902439,1280.586081
1.43507E+12,6.180722892,-0.21686747,7.746987952,1280.204833,62.43902439,1314.285714
1.43507E+12,6.168674699,-0.204819277,7.746987952,1280.204833,62.43902439,1358.974359
1.43507E+12,6.120481928,-0.21686747,7.746987952,1280.204833,62.43902439,1417.582418
1.43507E+12,6.13253012,-0.228915663,7.746987952,1279.458247,62.43902439,1484.249084
1.43507E+12,6.120481928,-0.240963855,7.746987952,1280.204833,62.43902439,1559.70696
1.43507E+12,6.120481928,-0.228915663,7.734939759,1280.204833,62.43902439,1641.025641
1.43507E+12,6.120481928,-0.228915663,7.734939759,1279.458247,62.43902439,1723.076923
1.43507E+12,6.13253012,-0.240963855,7.759036145,1280.204833,62.43902439,1802.197802
1.43507E+12,6.144578313,-0.21686747,7.746987952,1280.204833,62.43902439,1873.260073
1.43507E+12,6.156626506,-0.21686747,7.759036145,1279.458247,62.43902439,1934.798535
1.43507E+12,6.156626506,-0.204819277,7.746987952,1280.204833,62.43902439,1987.545788
1.43507E+12,6.168674699,-0.21686747,7.746987952,1279.458247,62.43902439,2029.304029
1.43507E+12,6.144578313,-0.204819277,7.759036145,1279.458247,62.43902439,2062.271062
1.43507E+12,6.144578313,-0.204819277,7.759036145,1280.204833,62.43902439,2084.249084
1.43507E+12,6.144578313,-0.204819277,7.759036145,1279.458247,62.43902439,2098.168498
1.43507E+12,6.120481928,-0.192771084,7.734939759,1279.458247,62.43902439,2107.692308
1.43507E+12,6.156626506,-0.21686747,7.759036145,1280.204833,62.43902439,2108.424908
1.43507E+12,6.13253012,-0.240963855,7.771084337,1279.458247,64,2101.098901
1.43507E+12,6.120481928,-0.204819277,7.746987952,1280.204833,64,2089.377289
1.43507E+12,6.144578313,-0.204819277,7.734939759,1279.458247,64,2073.260073
1.43507E+12,6.120481928,-0.228915663,7.746987952,1280.204833,64,2054.212454
1.43507E+12,6.144578313,-0.240963855,7.746987952,1279.458247,64,2032.234432
1.43507E+12,6.156626506,-0.21686747,7.746987952,1279.458247,64,2005.128205
1.43507E+12,6.168674699,-0.204819277,7.746987952,1279.458247,64,1972.893773
1.43507E+12,6.144578313,-0.21686747,7.722891566,1279.458247,64,1941.391941
1.43507E+12,6.120481928,-0.228915663,7.746987952,1279.458247,64,1907.692308
1.43507E+12,6.096385542,-0.228915663,7.746987952,1279.458247,64,1873.260073
1.43507E+12,6.084337349,-0.228915663,7.746987952,1279.458247,64,1841.025641
1.43507E+12,6.108433735,-0.240963855,7.759036145,1279.458247,64,1810.25641
1.43507E+12,6.13253012,-0.21686747,7.746987952,1279.458247,64,1783.150183
1.43507E+12,6.13253012,-0.21686747,7.746987952,1278.712531,64,1759.70696
1.43507E+12,6.156626506,-0.204819277,7.759036145,1279.458247,64,1738.461538
1.43507E+12,6.180722892,-0.204819277,7.734939759,1279.458247,64,1720.879121
1.43507E+12,6.180722892,-0.192771084,7.734939759,1280.204833,64,1709.89011
1.43507E+12,6.180722892,-0.192771084,7.746987952,1279.458247,64,1701.831502
